OxySoft export of:	C:\Artinis NIRS\NIRS Data\NIRS_002_FP_03_11_15_2021
Export date:	2022/06/13 09:23:13
Start of measurement:	2021-11-15 14:19:19.309

Datafile sample rate:	10.00	Hz
Datafile duration:	1696.400	s
Datafile total number of samples:	16964

Description:	

Optode-template:	PortaMon TSI
Optode distance (mm):	 37.50
Optode gradients (mm):	 2.50
DPF:	4.00

Device id:	1329
# Receivers:	1
# Light sources:	6
# ADC:	0

Light source wavelengths:
device	index	wavelength
1	1	759	nm
1	2	854	nm
1	3	759	nm
1	4	854	nm
1	5	761	nm
1	6	856	nm

Export sample rate:	10.00	Hz
Selected time span:	0	1696.400
Selected time span (sample numbers):	0	16964


Legend:
Column	Trace (Measurement)
1	(Sample number)
2	Rx1-Tx1 O2Hb (Mov avg) (NIRS_002_FP_03_11_15_21)
3	Rx1-Tx1 HHb (Mov avg) (NIRS_002_FP_03_11_15_21)
4	Rx1-Tx2 O2Hb (Mov avg) (NIRS_002_FP_03_11_15_21)
5	Rx1-Tx2 HHb (Mov avg) (NIRS_002_FP_03_11_15_21)
6	Rx1-Tx3 O2Hb (Mov avg) (NIRS_002_FP_03_11_15_21)
7	Rx1-Tx3 HHb (Mov avg) (NIRS_002_FP_03_11_15_21)
8	Rx1-Tx1,Tx2,Tx3 TSI% (Mov avg) (NIRS_002_FP_03_11_15_21)
9	Rx1-Tx1,Tx2,Tx3 TSI Fit Factor (Mov avg) (NIRS_002_FP_03_11_15_21)
10	(Event)


1	2	3	4	5	6	7	8	9	10
     0	 0.0000	 0.0000	 0.0000	 0.0000	 0.0000	 0.0000	 0.0000	 0.0000	
     1	 0.0000	 0.0000	 0.0000	 0.0000	 0.0000	 0.0000	 0.0000	 0.0000	
     2	 0.0000	 0.0000	 0.0000	 0.0000	 0.0000	 0.0000	 0.0000	 0.0000	
     3	 0.0000	 0.0000	 0.0000	 0.0000	 0.0000	 0.0000	 0.0000	 0.0000	
     4	 0.0000	 0.0000	 0.0000	 0.0000	 0.0000	 0.0000	 0.0000	 0.0000	
     5	 0.0000	 0.0000	 0.0000	 0.0000	 0.0000	 0.0000	 0.0000	 0.0000	
     6	 0.0000	 0.0000	 0.0000	 0.0000	 0.0000	 0.0000	 0.0000	 0.0000	
     7	 0.0000	 0.0000	 0.0000	 0.0000	 0.0000	 0.0000	 0.0000	 0.0000	
     8	 0.0000	 0.0000	 0.0000	 0.0000	 0.0000	 0.0000	 0.0000	 0.0000	
     9	 0.0000	 0.0000	 0.0000	 0.0000	 0.0000	 0.0000	 0.0000	 0.0000	
    10	 0.0000	 0.0000	 0.0000	 0.0000	 0.0000	 0.0000	 0.0000	 0.0000	
    11	 0.0000	 0.0000	 0.0000	 0.0000	 0.0000	 0.0000	 0.0000	 0.0000	
    12	 0.0000	 0.0000	 0.0000	 0.0000	 0.0000	 0.0000	 0.0000	 0.0000	
    13	 0.0000	 0.0000	 0.0000	 0.0000	 0.0000	 0.0000	 0.0000	 0.0000	
    14	 0.0000	 0.0000	 0.0000	 0.0000	 0.0000	 0.0000	 0.0000	 0.0000	
    15	 0.0000	 0.0000	 0.0000	 0.0000	 0.0000	 0.0000	 0.0000	 0.0000	
    16	 0.0000	 0.0000	 0.0000	 0.0000	 0.0000	 0.0000	 0.0000	 0.0000	
    17	-10.1195	-6.9619	-12.0389	-6.8090	-32.1517	-26.3765	70.0376	100.0000	
    18	-10.1183	-6.9637	-12.0402	-6.8110	-32.1517	-26.3765	70.0310	100.0000	
    19	-10.1171	-6.9655	-12.0409	-6.8127	-32.1517	-26.3765	70.0240	100.0000	
    20	-10.1172	-6.9682	-12.0429	-6.8152	-32.1517	-26.3765	70.0171	100.0000	
    21	-10.1161	-6.9713	-12.0425	-6.8185	-32.1517	-26.3765	70.0174	100.0000	
    22	-10.1122	-6.9727	-12.0389	-6.8198	-32.1517	-26.3765	70.0174	100.0000	
    23	-10.1038	-6.9737	-12.0315	-6.8187	-32.1517	-26.3765	70.0018	100.0000	
    24	-10.0933	-6.9734	-12.0216	-6.8171	-32.1517	-26.3765	69.9938	100.0000	
    25	-10.0828	-6.9730	-12.0117	-6.8155	-32.1517	-26.3765	69.9857	100.0000	
    26	-10.0742	-6.9727	-12.0055	-6.8139	-32.1517	-26.3765	69.9708	100.0000	
    27	-10.0677	-6.9723	-12.0011	-6.8123	-32.1517	-26.3765	69.9558	100.0000	
    28	-10.0612	-6.9733	-11.9968	-6.8119	-32.1517	-26.3765	69.9408	100.0000	
    29	-10.0553	-6.9733	-11.9912	-6.8107	-32.1517	-26.3765	69.9328	100.0000	
    30	-10.0467	-6.9716	-11.9813	-6.8092	-32.1517	-26.3765	69.9398	100.0000	
    31	-10.0400	-6.9699	-11.9756	-6.8067	-32.1517	-26.3765	69.9321	100.0000	
    32	-10.0374	-6.9695	-11.9744	-6.8059	-32.1517	-26.3765	69.9248	100.0000	
    33	-10.0381	-6.9699	-11.9762	-6.8059	-32.1517	-26.3765	69.9174	100.0000	
    34	-10.0381	-6.9713	-11.9756	-6.8067	-32.1517	-26.3765	69.9171	100.0000	
    35	-10.0356	-6.9722	-11.9732	-6.8063	-32.1517	-26.3765	69.9091	100.0000	
    36	-10.0316	-6.9722	-11.9688	-6.8060	-32.1517	-26.3765	69.9087	100.0000	
    37	-10.0284	-6.9727	-11.9658	-6.8064	-32.1517	-26.3765	69.9087	100.0000	
    38	-10.0298	-6.9736	-11.9677	-6.8076	-32.1517	-26.3765	69.9091	100.0000	
    39	-10.0344	-6.9753	-11.9734	-6.8101	-32.1517	-26.3765	69.9098	100.0000	
    40	-10.0411	-6.9771	-11.9797	-6.8129	-32.1517	-26.3765	69.9178	100.0000	
    41	-10.0452	-6.9797	-11.9823	-6.8158	-32.1517	-26.3765	69.9251	100.0000	
    42	-10.0466	-6.9819	-11.9824	-6.8183	-32.1517	-26.3765	69.9324	100.0000	
    43	-10.0480	-6.9828	-11.9831	-6.8200	-32.1517	-26.3765	69.9401	100.0000	
    44	-10.0500	-6.9841	-11.9845	-6.8221	-32.1517	-26.3765	69.9477	100.0000	
    45	-10.0534	-6.9863	-11.9883	-6.8246	-32.1517	-26.3765	69.9481	100.0000	
    46	-10.0575	-6.9889	-11.9916	-6.8279	-32.1517	-26.3765	69.9558	100.0000	
    47	-10.0596	-6.9916	-11.9930	-6.8312	-32.1517	-26.3765	69.9634	100.0000	
    48	-10.0611	-6.9938	-11.9926	-6.8345	-32.1517	-26.3765	69.9784	100.0000	
    49	-10.0625	-6.9960	-11.9933	-6.8375	-32.1517	-26.3765	69.9861	100.0000	
    50	-10.0672	-6.9978	-11.9960	-6.8416	-32.1517	-26.3765	70.0091	100.0000	
    51	-10.0732	-7.0004	-12.0018	-6.8453	-32.1517	-26.3765	70.0171	100.0000	
    52	-10.0800	-7.0034	-12.0081	-6.8494	-32.1517	-26.3765	70.0252	100.0000	
    53	-10.0834	-7.0070	-12.0114	-6.8540	-32.1517	-26.3765	70.0332	100.0000	
    54	-10.0843	-7.0101	-12.0117	-6.8577	-32.1517	-26.3765	70.0408	100.0000	
    55	-10.0844	-7.0128	-12.0112	-6.8611	-32.1517	-26.3765	70.0485	100.0000	
    56	-10.0871	-7.0145	-12.0133	-6.8648	-32.1517	-26.3765	70.0642	100.0000	
    57	-10.0899	-7.0176	-12.0178	-6.8677	-32.1517	-26.3765	70.0572	100.0000	
    58	-10.0940	-7.0203	-12.0216	-6.8714	-32.1517	-26.3765	70.0652	100.0000	
    59	-10.0955	-7.0225	-12.0224	-6.8743	-32.1517	-26.3765	70.0729	100.0000	
    60	-10.0936	-7.0238	-12.0189	-6.8769	-32.1517	-26.3765	70.0879	100.0000	
    61	-10.0890	-7.0248	-12.0147	-6.8778	-32.1517	-26.3765	70.0879	100.0000	
    62	-10.0864	-7.0244	-12.0104	-6.8786	-32.1517	-26.3765	70.1028	100.0000	
    63	-10.0825	-7.0244	-12.0055	-6.8791	-32.1517	-26.3765	70.1102	100.0000	
    64	-10.0785	-7.0231	-11.9994	-6.8788	-32.1517	-26.3765	70.1248	100.0000	
    65	-10.0719	-7.0227	-11.9926	-6.8780	-32.1517	-26.3765	70.1244	100.0000	
    66	-10.0620	-7.0215	-11.9797	-6.8769	-32.1517	-26.3765	70.1383	100.0000	
    67	-10.0488	-7.0194	-11.9654	-6.8737	-32.1517	-26.3765	70.1372	100.0000	
    68	-10.0374	-7.0160	-11.9523	-6.8701	-32.1517	-26.3765	70.1438	100.0000	
    69	-10.0281	-7.0125	-11.9411	-6.8664	-32.1517	-26.3765	70.1504	100.0000	
    70	-10.0187	-7.0090	-11.9298	-6.8628	-32.1517	-26.3765	70.1570	100.0000	
    71	-10.0081	-7.0060	-11.9180	-6.8587	-32.1517	-26.3765	70.1559	100.0000	
    72	-9.9973	-7.0016	-11.9031	-6.8551	-32.1517	-26.3765	70.1771	100.0000	
    73	-9.9821	-6.9982	-11.8862	-6.8503	-32.1517	-26.3765	70.1757	100.0000	
    74	-9.9694	-6.9939	-11.8713	-6.8454	-32.1517	-26.3765	70.1819	100.0000	
    75	-9.9580	-6.9904	-11.8593	-6.8401	-32.1517	-26.3765	70.1732	100.0000	
    76	-9.9480	-6.9865	-11.8468	-6.8357	-32.1517	-26.3765	70.1794	100.0000	
    77	-9.9373	-6.9835	-11.8367	-6.8303	-32.1517	-26.3765	70.1634	100.0000	
    78	-9.9280	-6.9800	-11.8260	-6.8259	-32.1517	-26.3765	70.1623	100.0000	
    79	-9.9166	-6.9766	-11.8135	-6.8214	-32.1517	-26.3765	70.1612	100.0000	
    80	-9.9059	-6.9722	-11.7997	-6.8161	-32.1517	-26.3765	70.1670	100.0000	
    81	-9.8971	-6.9679	-11.7896	-6.8108	-32.1517	-26.3765	70.1659	100.0000	
    82	-9.8897	-6.9644	-11.7802	-6.8071	-32.1517	-26.3765	70.1725	100.0000	
    83	-9.8830	-6.9613	-11.7714	-6.8039	-32.1517	-26.3765	70.1791	100.0000	
    84	-9.8769	-6.9587	-11.7639	-6.8014	-32.1517	-26.3765	70.1860	100.0000	
    85	-9.8709	-6.9561	-11.7558	-6.7986	-32.1517	-26.3765	70.1925	100.0000	
    86	-9.8636	-6.9539	-11.7477	-6.7958	-32.1517	-26.3765	70.1918	100.0000	
    87	-9.8576	-6.9526	-11.7420	-6.7933	-32.1517	-26.3765	70.1838	100.0000	
    88	-9.8556	-6.9513	-11.7383	-6.7921	-32.1517	-26.3765	70.1907	100.0000	
    89	-9.8549	-6.9509	-11.7370	-6.7913	-32.1517	-26.3765	70.1904	100.0000	
    90	-9.8549	-6.9509	-11.7370	-6.7913	-32.1517	-26.3765	70.1904	100.0000	
    91	-9.8549	-6.9509	-11.7358	-6.7917	-32.1517	-26.3765	70.1976	100.0000	
    92	-9.8529	-6.9509	-11.7321	-6.7917	-32.1517	-26.3765	70.2046	100.0000	
    93	-9.8503	-6.9505	-11.7278	-6.7914	-32.1517	-26.3765	70.2115	100.0000	
    94	-9.8490	-6.9509	-11.7260	-6.7914	-32.1517	-26.3765	70.2111	100.0000	
    95	-9.8484	-6.9518	-11.7254	-6.7922	-32.1517	-26.3765	70.2111	100.0000	
    96	-9.8485	-6.9532	-11.7267	-6.7931	-32.1517	-26.3765	70.2038	100.0000	
    97	-9.8498	-6.9541	-11.7268	-6.7943	-32.1517	-26.3765	70.2111	100.0000	
    98	-9.8492	-6.9550	-11.7244	-6.7952	-32.1517	-26.3765	70.2180	100.0000	
    99	-9.8460	-6.9554	-11.7200	-6.7948	-32.1517	-26.3765	70.2173	100.0000	
   100	-9.8414	-6.9564	-11.7152	-6.7953	-32.1517	-26.3765	70.2169	100.0000	
   101	-9.8382	-6.9569	-11.7103	-6.7957	-32.1517	-26.3765	70.2238	100.0000	
   102	-9.8355	-6.9564	-11.7054	-6.7962	-32.1517	-26.3765	70.2383	100.0000	
   103	-9.8329	-6.9560	-11.7011	-6.7958	-32.1517	-26.3765	70.2452	100.0000	
   104	-9.8270	-6.9561	-11.6943	-6.7951	-32.1517	-26.3765	70.2445	100.0000	
   105	-9.8191	-6.9548	-11.6826	-6.7935	-32.1517	-26.3765	70.2579	100.0000	
   106	-9.8092	-6.9536	-11.6709	-6.7920	-32.1517	-26.3765	70.2645	100.0000	
   107	-9.8019	-6.9528	-11.6616	-6.7908	-32.1517	-26.3765	70.2710	100.0000	
   108	-9.7966	-6.9519	-11.6555	-6.7905	-32.1517	-26.3765	70.2782	100.0000	
   109	-9.7927	-6.9520	-11.6511	-6.7901	-32.1517	-26.3765	70.2779	100.0000	
   110	-9.7908	-6.9520	-11.6487	-6.7897	-32.1517	-26.3765	70.2775	100.0000	
   111	-9.7875	-6.9525	-11.6438	-6.7902	-32.1517	-26.3765	70.2844	100.0000	
   112	-9.7836	-6.9525	-11.6383	-6.7902	-32.1517	-26.3765	70.2913	100.0000	
   113	-9.7816	-6.9525	-11.6353	-6.7907	-32.1517	-26.3765	70.2985	100.0000	
   114	-9.7810	-6.9534	-11.6335	-6.7919	-32.1517	-26.3765	70.3058	100.0000	
   115	-9.7817	-6.9539	-11.6329	-6.7928	-32.1517	-26.3765	70.3130	100.0000	
   116	-9.7837	-6.9539	-11.6336	-6.7932	-32.1517	-26.3765	70.3203	100.0000	
   117	-9.7843	-6.9543	-11.6324	-6.7936	-32.1517	-26.3765	70.3271	100.0000	
   118	-9.7824	-6.9543	-11.6287	-6.7937	-32.1517	-26.3765	70.3340	100.0000	
   119	-9.7803	-6.9530	-11.6238	-6.7941	-32.1517	-26.3765	70.3561	100.0000	
   120	-9.7784	-6.9530	-11.6208	-6.7946	-32.1517	-26.3765	70.3633	100.0000	
   121	-9.7777	-6.9526	-11.6183	-6.7942	-32.1517	-26.3765	70.3702	100.0000	
   122	-9.7769	-6.9508	-11.6152	-6.7934	-32.1517	-26.3765	70.3847	100.0000	
   123	-9.7749	-6.9495	-11.6108	-6.7918	-32.1517	-26.3765	70.3912	100.0000	
   124	-9.7715	-6.9473	-11.6034	-6.7906	-32.1517	-26.3765	70.4125	100.0000	
   125	-9.7642	-6.9451	-11.5929	-6.7886	-32.1517	-26.3765	70.4262	100.0000	
   126	-9.7581	-6.9425	-11.5835	-6.7862	-32.1517	-26.3765	70.4399	100.0000	
   127	-9.7540	-6.9399	-11.5767	-6.7842	-32.1517	-26.3765	70.4540	100.0000	
   128	-9.7506	-6.9377	-11.5723	-6.7826	-32.1517	-26.3765	70.4612	100.0000	
   129	-9.7499	-6.9359	-11.5704	-6.7813	-32.1517	-26.3765	70.4685	100.0000	
   130	-9.7505	-6.9350	-11.5697	-6.7809	-32.1517	-26.3765	70.4757	100.0000	
   131	-9.7498	-6.9346	-11.5667	-6.7814	-32.1517	-26.3765	70.4901	100.0000	
   132	-9.7465	-6.9350	-11.5637	-6.7818	-32.1517	-26.3765	70.4901	100.0000	
   133	-9.7465	-6.9350	-11.5631	-6.7827	-32.1517	-26.3765	70.4977	100.0000	
   134	-9.7486	-6.9364	-11.5644	-6.7847	-32.1517	-26.3765	70.5054	100.0000	
   135	-9.7526	-6.9377	-11.5695	-6.7868	-32.1517	-26.3765	70.5061	100.0000	
   136	-9.7580	-6.9398	-11.5758	-6.7896	-32.1517	-26.3765	70.5069	100.0000	
   137	-9.7634	-6.9434	-11.5827	-6.7929	-32.1517	-26.3765	70.5000	100.0000	
   138	-9.7669	-6.9469	-11.5866	-6.7966	-32.1517	-26.3765	70.5004	100.0000	
   139	-9.7703	-6.9491	-11.5910	-6.7995	-32.1517	-26.3765	70.5012	100.0000	
   140	-9.7756	-6.9513	-11.5968	-6.8032	-32.1517	-26.3765	70.5095	100.0000	
   141	-9.7810	-6.9534	-11.6025	-6.8069	-32.1517	-26.3765	70.5179	100.0000	
   142	-9.7845	-6.9570	-11.6088	-6.8098	-32.1517	-26.3765	70.5038	100.0000	
   143	-9.7886	-6.9596	-11.6120	-6.8131	-32.1517	-26.3765	70.5114	100.0000	
   144	-9.7900	-6.9618	-11.6128	-6.8160	-32.1517	-26.3765	70.5190	100.0000	
   145	-9.7874	-6.9628	-11.6104	-6.8168	-32.1517	-26.3765	70.5190	100.0000	
   146	-9.7842	-6.9632	-11.6074	-6.8173	-32.1517	-26.3765	70.5190	100.0000	
   147	-9.7835	-6.9628	-11.6055	-6.8173	-32.1517	-26.3765	70.5262	100.0000	
   148	-9.7816	-6.9628	-11.6025	-6.8178	-32.1517	-26.3765	70.5335	100.0000	
   149	-9.7796	-6.9628	-11.6000	-6.8174	-32.1517	-26.3765	70.5331	100.0000	
   150	-9.7782	-6.9620	-11.5964	-6.8174	-32.1517	-26.3765	70.5475	100.0000	
   151	-9.7756	-6.9615	-11.5920	-6.8170	-32.1517	-26.3765	70.5544	100.0000	
   152	-9.7703	-6.9607	-11.5847	-6.8171	-32.1517	-26.3765	70.5688	100.0000	
   153	-9.7670	-6.9598	-11.5816	-6.8163	-32.1517	-26.3765	70.5688	100.0000	
   154	-9.7650	-6.9599	-11.5798	-6.8163	-32.1517	-26.3765	70.5688	100.0000	
   155	-9.7644	-6.9608	-11.5798	-6.8163	-32.1517	-26.3765	70.5612	100.0000	
   156	-9.7658	-6.9616	-11.5810	-6.8172	-32.1517	-26.3765	70.5612	100.0000	
   157	-9.7697	-6.9616	-11.5836	-6.8188	-32.1517	-26.3765	70.5764	100.0000	
   158	-9.7730	-6.9625	-11.5873	-6.8200	-32.1517	-26.3765	70.5768	100.0000	
   159	-9.7738	-6.9642	-11.5892	-6.8212	-32.1517	-26.3765	70.5696	100.0000	
   160	-9.7778	-6.9655	-11.5930	-6.8237	-32.1517	-26.3765	70.5776	100.0000	
   161	-9.7825	-6.9673	-11.5975	-6.8266	-32.1517	-26.3765	70.5856	100.0000	
   162	-9.7872	-6.9690	-11.6025	-6.8286	-32.1517	-26.3765	70.5860	100.0000	
   163	-9.7918	-6.9708	-11.6075	-6.8307	-32.1517	-26.3765	70.5863	100.0000	
   164	-9.7958	-6.9720	-11.6126	-6.8327	-32.1517	-26.3765	70.5871	100.0000	
   165	-9.7986	-6.9738	-11.6163	-6.8339	-32.1517	-26.3765	70.5799	100.0000	
   166	-9.7999	-6.9747	-11.6189	-6.8356	-32.1517	-26.3765	70.5807	100.0000	
   167	-9.8039	-6.9760	-11.6244	-6.8368	-32.1517	-26.3765	70.5738	100.0000	
   168	-9.8092	-6.9768	-11.6295	-6.8388	-32.1517	-26.3765	70.5818	100.0000	
   169	-9.8146	-6.9790	-11.6351	-6.8412	-32.1517	-26.3765	70.5822	100.0000	
   170	-9.8206	-6.9803	-11.6402	-6.8445	-32.1517	-26.3765	70.5978	100.0000	
   171	-9.8240	-6.9825	-11.6440	-6.8470	-32.1517	-26.3765	70.5982	100.0000	
   172	-9.8234	-6.9834	-11.6423	-6.8483	-32.1517	-26.3765	70.6054	100.0000	
   173	-9.8194	-6.9834	-11.6379	-6.8479	-32.1517	-26.3765	70.6050	100.0000	
   174	-9.8161	-6.9826	-11.6336	-6.8475	-32.1517	-26.3765	70.6123	100.0000	
   175	-9.8115	-6.9822	-11.6293	-6.8459	-32.1517	-26.3765	70.6043	100.0000	
   176	-9.8075	-6.9809	-11.6249	-6.8443	-32.1517	-26.3765	70.6039	100.0000	
   177	-9.8022	-6.9800	-11.6193	-6.8431	-32.1517	-26.3765	70.6035	100.0000	
   178	-9.7955	-6.9783	-11.6112	-6.8415	-32.1517	-26.3765	70.6103	100.0000	
   179	-9.7850	-6.9766	-11.5988	-6.8383	-32.1517	-26.3765	70.6088	100.0000	
   180	-9.7730	-6.9741	-11.5857	-6.8347	-32.1517	-26.3765	70.6076	100.0000	
   181	-9.7624	-6.9711	-11.5732	-6.8302	-32.1517	-26.3765	70.6061	100.0000	
   182	-9.7504	-6.9672	-11.5583	-6.8266	-32.1517	-26.3765	70.6197	100.0000	
   183	-9.7371	-6.9637	-11.5433	-6.8217	-32.1517	-26.3765	70.6182	100.0000	
   184	-9.7230	-6.9585	-11.5264	-6.8156	-32.1517	-26.3765	70.6239	100.0000	
   185	-9.7043	-6.9529	-11.5046	-6.8088	-32.1517	-26.3765	70.6291	100.0000	
   186	-9.6836	-6.9460	-11.4808	-6.8007	-32.1517	-26.3765	70.6343	100.0000	
   187	-9.6643	-6.9399	-11.4595	-6.7929	-32.1517	-26.3765	70.6324	100.0000	
   188	-9.6463	-6.9348	-11.4390	-6.7869	-32.1517	-26.3765	70.6380	100.0000	
   189	-9.6303	-6.9296	-11.4202	-6.7808	-32.1517	-26.3765	70.6437	100.0000	
   190	-9.6162	-6.9244	-11.4028	-6.7756	-32.1517	-26.3765	70.6569	100.0000	
   191	-9.6003	-6.9205	-11.3859	-6.7695	-32.1517	-26.3765	70.6478	100.0000	
   192	-9.5830	-6.9158	-11.3659	-6.7639	-32.1517	-26.3765	70.6535	100.0000	
   193	-9.5651	-6.9119	-11.3478	-6.7582	-32.1517	-26.3765	70.6447	100.0000	
   194	-9.5530	-6.9067	-11.3341	-6.7542	-32.1517	-26.3765	70.6591	100.0000	
   195	-9.5423	-6.9037	-11.3223	-6.7514	-32.1517	-26.3765	70.6659	100.0000	
   196	-9.5250	-6.8976	-11.2998	-6.7441	-32.1517	-26.3765	70.6779	100.0000	
   197	-9.5014	-6.8863	-11.2696	-6.7293	-32.1517	-26.3765	70.6807	100.0000	
   198	-9.4744	-6.8727	-11.2361	-6.7126	-32.1517	-26.3765	70.6837	100.0000	
   199	-9.4455	-6.8605	-11.2014	-6.6950	-32.1517	-26.3765	70.6712	100.0000	
   200	-9.4185	-6.8469	-11.1697	-6.6757	-32.1517	-26.3765	70.6515	100.0000	
   201	-9.3922	-6.8325	-11.1366	-6.6543	-32.1517	-26.3765	70.6308	100.0000	
   202	-9.3724	-6.8184	-11.1133	-6.6332	-32.1517	-26.3765	70.5965	100.0000	
   203	-9.3785	-6.8121	-11.1256	-6.6231	-32.1517	-26.3765	70.5449	100.0000	
   204	-9.4177	-6.8206	-11.1781	-6.6304	-32.1517	-26.3765	70.4824	100.0000	
   205	-9.4879	-6.8453	-11.2666	-6.6563	-32.1517	-26.3765	70.4155	100.0000	
   206	-9.6009	-6.8745	-11.3815	-6.6943	-32.1517	-26.3765	70.4533	100.0000	
   207	-9.6897	-6.9267	-11.5146	-6.7393	-32.1517	-26.3765	70.2361	100.0000	
   208	-9.7752	-6.9883	-11.6621	-6.7887	-32.1517	-26.3765	69.9166	100.0000	
   209	-9.8509	-7.0630	-11.8214	-6.8422	-32.1517	-26.3765	69.4523	100.0000	
   210	-9.9205	-7.1454	-11.9908	-6.8997	-32.1517	-26.3765	68.8952	100.0000	
   211	-9.9921	-7.2393	-12.1771	-6.9646	-32.1517	-26.3765	68.2482	100.0000	
   212	-10.0687	-7.3417	-12.3798	-7.0365	-32.1517	-26.3765	67.5419	100.0000	
   213	-10.1391	-7.4607	-12.5990	-7.1190	-32.1517	-26.3765	66.6906	100.0000	
   214	-10.2120	-7.5774	-12.8152	-7.2007	-32.1517	-26.3765	65.8764	100.0000	
   215	-10.2869	-7.6941	-13.0349	-7.2811	-32.1517	-26.3765	65.0447	100.0000	
   216	-10.3650	-7.8103	-13.2501	-7.3683	-32.1517	-26.3765	64.3005	100.0000	
   217	-10.4583	-7.8951	-13.4086	-7.4405	-32.1517	-26.3765	63.9751	100.0000	
   218	-10.5474	-7.9411	-13.4920	-7.4835	-32.1517	-26.3765	63.9751	100.0000	
   219	-10.5978	-7.9633	-13.5223	-7.4995	-32.1517	-26.3765	64.0055	100.0000	
   220	-10.6201	-7.9738	-13.5276	-7.5053	-32.1517	-26.3765	64.0371	100.0000	
   221	-10.5891	-8.0040	-13.5132	-7.5117	-32.1517	-26.3765	63.8370	100.0000	
   222	-10.5879	-8.0072	-13.4689	-7.5084	-32.1517	-26.3765	63.9635	100.0000	
   223	-10.5871	-7.9822	-13.3918	-7.4875	-32.1517	-26.3765	64.2777	100.0000	
   224	-10.5846	-7.9380	-13.3006	-7.4576	-32.1517	-26.3765	64.7103	100.0000	
   225	-10.5941	-7.8874	-13.2112	-7.4276	-32.1517	-26.3765	65.2313	100.0000	
   226	-10.6178	-7.8331	-13.1232	-7.3997	-32.1517	-26.3765	65.8443	100.0000	
   227	-10.6461	-7.7792	-13.0304	-7.3735	-32.1517	-26.3765	66.5102	100.0000	
   228	-10.6884	-7.7162	-12.9350	-7.3444	-32.1517	-26.3765	67.3008	100.0000	
   229	-10.7227	-7.6649	-12.8480	-7.3232	-32.1517	-26.3765	68.0037	100.0000	
   230	-10.7567	-7.6069	-12.7400	-7.3005	-32.1517	-26.3765	68.8176	100.0000	
   231	-10.7679	-7.5394	-12.6135	-7.2634	-32.1517	-26.3765	69.5726	100.0000	
   232	-10.7364	-7.4932	-12.5105	-7.2307	-32.1517	-26.3765	69.9280	100.0000	
   233	-10.6736	-7.4720	-12.4352	-7.2110	-32.1517	-26.3765	69.9892	100.0000	
   234	-10.6173	-7.4614	-12.3736	-7.2037	-32.1517	-26.3765	70.0387	100.0000	
   235	-10.5463	-7.4452	-12.2822	-7.1821	-32.1517	-26.3765	70.0866	100.0000	
   236	-10.4666	-7.3925	-12.1606	-7.1336	-32.1517	-26.3765	70.2660	100.0000	
   237	-10.3731	-7.3385	-12.0467	-7.0830	-32.1517	-26.3765	70.3604	100.0000	
   238	-10.2806	-7.3020	-11.9452	-7.0440	-32.1517	-26.3765	70.3824	100.0000	
   239	-10.2025	-7.2773	-11.8468	-7.0154	-32.1517	-26.3765	70.4368	100.0000	
   240	-10.1140	-7.2523	-11.7328	-6.9840	-32.1517	-26.3765	70.4963	100.0000	
   241	-10.0234	-7.2261	-11.6290	-6.9579	-32.1517	-26.3765	70.5554	100.0000	
   242	-9.9311	-7.2038	-11.5186	-6.9348	-32.1517	-26.3765	70.6270	100.0000	
   243	-9.8158	-7.1693	-11.3797	-6.8958	-32.1517	-26.3765	70.6956	100.0000	
   244	-9.7098	-7.1266	-11.2503	-6.8616	-32.1517	-26.3765	70.8452	100.0000	
   245	-9.6006	-7.0961	-11.1355	-6.8369	-32.1517	-26.3765	70.9162	100.0000	
   246	-9.4933	-7.0641	-11.0191	-6.8051	-32.1517	-26.3765	70.9609	100.0000	
   247	-9.3878	-7.0295	-10.9056	-6.7704	-32.1517	-26.3765	70.9983	100.0000	
   248	-9.2843	-6.9949	-10.8039	-6.7397	-32.1517	-26.3765	71.0265	100.0000	
   249	-9.1777	-6.9634	-10.7056	-6.7136	-32.1517	-26.3765	71.0432	100.0000	
   250	-9.0777	-6.9323	-10.6206	-6.6948	-32.1517	-26.3765	71.0800	100.0000	
   251	-8.9967	-6.9148	-10.5666	-6.6937	-32.1517	-26.3765	71.1017	100.0000	
   252	-8.9294	-6.9062	-10.5154	-6.6993	-32.1517	-26.3765	71.1483	100.0000	
   253	-8.8552	-6.8904	-10.4507	-6.6925	-32.1517	-26.3765	71.1823	100.0000	
   254	-8.7684	-6.8627	-10.3710	-6.6699	-32.1517	-26.3765	71.1987	100.0000	
   255	-8.6891	-6.8386	-10.2987	-6.6498	-32.1517	-26.3765	71.2077	100.0000	
   256	-8.5991	-6.8114	-10.2027	-6.6203	-32.1517	-26.3765	71.2231	100.0000	
   257	-8.5100	-6.7770	-10.1181	-6.5886	-32.1517	-26.3765	71.2301	100.0000	
   258	-8.4500	-6.7589	-10.0705	-6.5807	-32.1517	-26.3765	71.2589	100.0000	
   259	-8.3868	-6.7426	-10.0115	-6.5680	-32.1517	-26.3765	71.2747	100.0000	
   260	-8.3174	-6.7197	-9.9416	-6.5457	-32.1517	-26.3765	71.2871	100.0000	
   261	-8.2446	-6.6959	-9.8699	-6.5235	-32.1517	-26.3765	71.3002	100.0000	
   262	-8.1773	-6.6756	-9.8020	-6.5050	-32.1517	-26.3765	71.3201	100.0000	
   263	-8.0966	-6.6505	-9.7115	-6.4767	-32.1517	-26.3765	71.3411	100.0000	
   264	-7.9986	-6.6091	-9.6017	-6.4311	-32.1517	-26.3765	71.3602	100.0000	
   265	-7.9011	-6.5655	-9.4940	-6.3808	-32.1517	-26.3765	71.3569	100.0000	
   266	-7.8015	-6.5205	-9.3732	-6.3269	-32.1517	-26.3765	71.3776	100.0000	
   267	-7.6978	-6.4702	-9.2578	-6.2705	-32.1517	-26.3765	71.3808	100.0000	
   268	-7.6126	-6.4358	-9.1706	-6.2346	-32.1517	-26.3765	71.3835	100.0000	
   269	-7.5351	-6.4103	-9.0956	-6.2091	-32.1517	-26.3765	71.3818	100.0000	
   270	-7.4561	-6.3799	-9.0180	-6.1806	-32.1517	-26.3765	71.3948	100.0000	
   271	-7.3830	-6.3507	-8.9478	-6.1534	-32.1517	-26.3765	71.4013	100.0000	
   272	-7.2999	-6.3177	-8.8593	-6.1180	-32.1517	-26.3765	71.4096	100.0000	
   273	-7.2044	-6.2740	-8.7524	-6.0694	-32.1517	-26.3765	71.4213	100.0000	
   274	-7.1120	-6.2285	-8.6434	-6.0183	-32.1517	-26.3765	71.4449	100.0000	
   275	-7.0284	-6.1874	-8.5531	-5.9720	-32.1517	-26.3765	71.4367	100.0000	
   276	-6.9840	-6.1678	-8.5130	-5.9557	-32.1517	-26.3765	71.4454	100.0000	
   277	-6.9711	-6.1697	-8.5065	-5.9612	-32.1517	-26.3765	71.4493	100.0000	
   278	-6.9822	-6.1821	-8.5277	-5.9773	-32.1517	-26.3765	71.4411	100.0000	
   279	-7.0293	-6.2137	-8.5850	-6.0143	-32.1517	-26.3765	71.4424	100.0000	
   280	-7.0701	-6.2517	-8.6263	-6.0506	-32.1517	-26.3765	71.4367	100.0000	
   281	-7.0654	-6.2616	-8.6105	-6.0537	-32.1517	-26.3765	71.4367	100.0000	
   282	-7.0449	-6.2574	-8.5828	-6.0503	-32.1517	-26.3765	71.4693	100.0000	
   283	-7.0249	-6.2625	-8.5636	-6.0584	-32.1517	-26.3765	71.4922	100.0000	
   284	-6.9994	-6.2757	-8.5377	-6.0754	-32.1517	-26.3765	71.5293	100.0000	
   285	-6.9620	-6.2850	-8.5016	-6.0871	-32.1517	-26.3765	71.5517	100.0000	
   286	-6.9165	-6.2904	-8.4549	-6.0955	-32.1517	-26.3765	71.5874	100.0000	
   287	-6.8758	-6.3002	-8.4208	-6.1096	-32.1517	-26.3765	71.6056	100.0000	
   288	-6.8447	-6.3175	-8.3927	-6.1325	-32.1517	-26.3765	71.6449	100.0000	
   289	-6.8029	-6.3318	-8.3550	-6.1480	-32.1517	-26.3765	71.6536	100.0000	
   290	-6.7550	-6.3408	-8.3061	-6.1610	-32.1517	-26.3765	71.6971	100.0000	
   291	-6.6890	-6.3447	-8.2377	-6.1651	-32.1517	-26.3765	71.7235	100.0000	
   292	-6.6008	-6.3367	-8.1460	-6.1577	-32.1517	-26.3765	71.7558	100.0000	
   293	-6.5099	-6.3282	-8.0531	-6.1507	-32.1517	-26.3765	71.7892	100.0000	
   294	-6.3990	-6.3133	-7.9314	-6.1336	-32.1517	-26.3765	71.8310	100.0000	
   295	-6.2884	-6.2908	-7.8169	-6.1152	-32.1517	-26.3765	71.8853	100.0000	
   296	-6.2210	-6.2924	-7.7582	-6.1279	-32.1517	-26.3765	71.9420	100.0000	
   297	-6.1610	-6.3091	-7.7010	-6.1453	-32.1517	-26.3765	71.9565	100.0000	
   298	-6.0841	-6.3046	-7.6152	-6.1441	-32.1517	-26.3765	72.0235	100.0000	
   299	-6.0059	-6.2876	-7.5259	-6.1358	-32.1517	-26.3765	72.1270	100.0000	
   300	-5.9321	-6.2682	-7.4403	-6.1179	-32.1517	-26.3765	72.1841	100.0000	
   301	-5.8563	-6.2489	-7.3583	-6.0987	-32.1517	-26.3765	72.2143	100.0000	
   302	-5.7811	-6.2287	-7.2720	-6.0792	-32.1517	-26.3765	72.2643	100.0000	
   303	-5.6898	-6.2020	-7.1686	-6.0498	-32.1517	-26.3765	72.2971	100.0000	
   304	-5.5977	-6.1721	-7.0683	-6.0211	-32.1517	-26.3765	72.3406	100.0000	
   305	-5.5112	-6.1485	-6.9762	-5.9979	-32.1517	-26.3765	72.3709	100.0000	
   306	-5.4232	-6.1226	-6.8773	-5.9713	-32.1517	-26.3765	72.4124	100.0000	
   307	-5.3344	-6.0923	-6.7768	-5.9402	-32.1517	-26.3765	72.4532	100.0000	
   308	-5.2318	-6.0518	-6.6534	-5.8931	-32.1517	-26.3765	72.4865	100.0000	
   309	-5.1172	-5.9959	-6.5187	-5.8314	-32.1517	-26.3765	72.5192	100.0000	
   310	-5.0061	-5.9434	-6.3887	-5.7763	-32.1517	-26.3765	72.5681	100.0000	
   311	-4.8951	-5.8923	-6.2660	-5.7212	-32.1517	-26.3765	72.5844	100.0000	
   312	-4.7734	-5.8382	-6.1274	-5.6546	-32.1517	-26.3765	72.5665	100.0000	
   313	-4.6654	-5.7813	-6.0022	-5.5882	-32.1517	-26.3765	72.5630	100.0000	
   314	-4.6032	-5.7489	-5.9311	-5.5447	-32.1517	-26.3765	72.5217	100.0000	
   315	-4.5388	-5.7331	-5.8514	-5.5221	-32.1517	-26.3765	72.5369	100.0000	
   316	-4.4929	-5.7215	-5.7931	-5.5110	-32.1517	-26.3765	72.5857	100.0000	
   317	-4.4382	-5.7158	-5.7133	-5.4981	-32.1517	-26.3765	72.6313	100.0000	
   318	-4.3734	-5.6933	-5.6310	-5.4726	-32.1517	-26.3765	72.6749	100.0000	
   319	-4.3020	-5.6703	-5.5335	-5.4398	-32.1517	-26.3765	72.7039	100.0000	
   320	-4.2172	-5.6310	-5.4311	-5.3966	-32.1517	-26.3765	72.7390	100.0000	
   321	-4.1395	-5.6015	-5.3271	-5.3571	-32.1517	-26.3765	72.7672	100.0000	
   322	-4.0314	-5.5562	-5.1984	-5.3029	-32.1517	-26.3765	72.7833	100.0000	
   323	-3.9254	-5.5122	-5.0825	-5.2582	-32.1517	-26.3765	72.8153	100.0000	
   324	-3.8327	-5.4832	-4.9809	-5.2287	-32.1517	-26.3765	72.8485	100.0000	
   325	-3.7358	-5.4503	-4.8758	-5.1910	-32.1517	-26.3765	72.8521	100.0000	
   326	-3.6415	-5.4164	-4.7701	-5.1541	-32.1517	-26.3765	72.8761	100.0000	
   327	-3.5632	-5.3878	-4.6860	-5.1312	-32.1517	-26.3765	72.9349	100.0000	
   328	-3.4747	-5.3642	-4.6012	-5.1040	-32.1517	-26.3765	72.9110	100.0000	
   329	-3.3376	-5.3156	-4.4547	-5.0517	-32.1517	-26.3765	72.9264	100.0000	
   330	-3.2050	-5.2531	-4.3158	-4.9896	-32.1517	-26.3765	72.9519	100.0000	
   331	-3.0543	-5.1841	-4.1551	-4.9136	-32.1517	-26.3765	72.9434	100.0000	
   332	-2.9104	-5.1079	-4.0135	-4.8378	-32.1517	-26.3765	72.9378	100.0000	
   333	-2.7811	-5.0463	-3.8805	-4.7736	-32.1517	-26.3765	72.9356	100.0000	
   334	-2.6658	-4.9899	-3.7672	-4.7209	-32.1517	-26.3765	72.9534	100.0000	
   335	-2.5653	-4.9507	-3.6575	-4.6790	-32.1517	-26.3765	72.9706	100.0000	
   336	-2.4590	-4.9027	-3.5539	-4.6350	-32.1517	-26.3765	72.9894	100.0000	
   337	-2.3772	-4.8692	-3.4692	-4.6020	-32.1517	-26.3765	73.0052	100.0000	
   338	-2.3006	-4.8365	-3.3852	-4.5682	-32.1517	-26.3765	73.0248	100.0000	
   339	-2.2235	-4.8047	-3.3041	-4.5327	-32.1517	-26.3765	73.0177	100.0000	
   340	-2.1531	-4.7773	-3.2234	-4.5047	-32.1517	-26.3765	73.0501	100.0000	
   341	-2.0733	-4.7451	-3.1338	-4.4697	-32.1517	-26.3765	73.0677	100.0000	
   342	-2.0008	-4.7137	-3.0474	-4.4381	-32.1517	-26.3765	73.1118	100.0000	
   343	-1.9201	-4.6784	-2.9511	-4.4036	-32.1517	-26.3765	73.1694	100.0000	
   344	-1.8455	-4.6443	-2.8692	-4.3664	-32.1517	-26.3765	73.1746	100.0000	
   345	-1.7681	-4.6098	-2.7850	-4.3288	-32.1517	-26.3765	73.1796	100.0000	
   346	-1.6917	-4.5785	-2.7009	-4.2950	-32.1517	-26.3765	73.1917	100.0000	
   347	-1.6212	-4.5484	-2.6256	-4.2645	-32.1517	-26.3765	73.2062	100.0000	
   348	-1.5556	-4.5254	-2.5556	-4.2410	-32.1517	-26.3765	73.2213	100.0000	
   349	-1.4963	-4.5077	-2.4976	-4.2228	-32.1517	-26.3765	73.2193	100.0000	
   350	-1.4464	-4.4935	-2.4502	-4.2079	-32.1517	-26.3765	73.2113	100.0000	
   351	-1.3931	-4.4785	-2.4008	-4.1917	-32.1517	-26.3765	73.1970	100.0000	
   352	-1.3479	-4.4673	-2.3629	-4.1816	-32.1517	-26.3765	73.1856	100.0000	
   353	-1.3059	-4.4646	-2.3259	-4.1782	-32.1517	-26.3765	73.1728	100.0000	
   354	-1.2614	-4.4553	-2.2832	-4.1712	-32.1517	-26.3765	73.1866	100.0000	
   355	-1.2082	-4.4402	-2.2351	-4.1545	-32.1517	-26.3765	73.1660	100.0000	
   356	-1.1467	-4.4301	-2.1783	-4.1359	-32.1517	-26.3765	73.1083	100.0000	
   357	-1.0792	-4.4072	-2.1155	-4.1098	-32.1517	-26.3765	73.0794	100.0000	
   358	-1.0224	-4.3886	-2.0550	-4.0925	-32.1517	-26.3765	73.1026	100.0000	
   359	-0.9585	-4.3705	-1.9926	-4.0714	-32.1517	-26.3765	73.0860	100.0000	
   360	-0.8891	-4.3475	-1.9155	-4.0422	-32.1517	-26.3765	73.0763	100.0000	
   361	-0.8146	-4.3059	-1.8327	-3.9983	-32.1517	-26.3765	73.0874	100.0000	
   362	-0.7362	-4.2629	-1.7454	-3.9516	-32.1517	-26.3765	73.0908	100.0000	
   363	-0.6510	-4.2169	-1.6519	-3.9020	-32.1517	-26.3765	73.0941	100.0000	
   364	-0.5581	-4.1621	-1.5525	-3.8463	-32.1517	-26.3765	73.1060	100.0000	
   365	-0.4682	-4.1143	-1.4553	-3.7967	-32.1517	-26.3765	73.1174	100.0000	
   366	-0.3830	-4.0683	-1.3618	-3.7484	-32.1517	-26.3765	73.1283	100.0000	
   367	-0.3005	-4.0227	-1.2703	-3.7026	-32.1517	-26.3765	73.1536	100.0000	
   368	-0.2225	-3.9776	-1.1874	-3.6575	-32.1517	-26.3765	73.1676	100.0000	
   369	-0.1482	-3.9386	-1.1123	-3.6186	-32.1517	-26.3765	73.1704	100.0000	
   370	-0.0795	-3.9045	-1.0449	-3.5871	-32.1517	-26.3765	73.1825	100.0000	
   371	-0.0284	-3.8702	-0.9945	-3.5642	-32.1517	-26.3765	73.2461	100.0000	
   372	 0.0181	-3.8492	-0.9538	-3.5488	-32.1517	-26.3765	73.2629	100.0000	
   373	 0.0623	-3.8323	-0.9211	-3.5337	-32.1517	-26.3765	73.2407	100.0000	
   374	 0.0952	-3.8174	-0.8949	-3.5264	-32.1517	-26.3765	73.2663	100.0000	
   375	 0.1179	-3.8105	-0.8903	-3.5306	-32.1517	-26.3765	73.2795	100.0000	
   376	 0.1369	-3.8214	-0.8907	-3.5490	-32.1517	-26.3765	73.2725	100.0000	
   377	 0.1592	-3.8315	-0.8874	-3.5662	-32.1517	-26.3765	73.2648	100.0000	
   378	 0.1730	-3.8419	-0.8896	-3.5833	-32.1517	-26.3765	73.2626	100.0000	
   379	 0.1854	-3.8546	-0.8856	-3.5988	-32.1517	-26.3765	73.2614	100.0000	
   380	 0.2110	-3.8535	-0.8680	-3.6007	-32.1517	-26.3765	73.2592	100.0000	
   381	 0.2415	-3.8480	-0.8446	-3.5988	-32.1517	-26.3765	73.2633	100.0000	
   382	 0.2740	-3.8412	-0.8186	-3.5941	-32.1517	-26.3765	73.2595	100.0000	
   383	 0.3092	-3.8326	-0.7900	-3.5877	-32.1517	-26.3765	73.2557	100.0000	
   384	 0.3425	-3.8227	-0.7601	-3.5792	-32.1517	-26.3765	73.2568	100.0000	
   385	 0.3685	-3.8150	-0.7383	-3.5724	-32.1517	-26.3765	73.2514	100.0000	
   386	 0.3917	-3.8103	-0.7172	-3.5684	-32.1517	-26.3765	73.2520	100.0000	
   387	 0.4170	-3.8030	-0.6923	-3.5607	-32.1517	-26.3765	73.2509	100.0000	
   388	 0.4431	-3.7925	-0.6641	-3.5510	-32.1517	-26.3765	73.2626	100.0000	
   389	 0.4706	-3.7812	-0.6365	-3.5392	-32.1517	-26.3765	73.2610	100.0000	
   390	 0.4969	-3.7694	-0.6106	-3.5261	-32.1517	-26.3765	73.2526	100.0000	
   391	 0.5124	-3.7606	-0.5928	-3.5146	-32.1517	-26.3765	73.2427	100.0000	
   392	 0.5239	-3.7545	-0.5738	-3.5047	-32.1517	-26.3765	73.2434	100.0000	
   393	 0.5421	-3.7453	-0.5516	-3.4903	-32.1517	-26.3765	73.2246	100.0000	
   394	 0.5604	-3.7361	-0.5306	-3.4780	-32.1517	-26.3765	73.2142	100.0000	
   395	 0.5806	-3.7256	-0.5090	-3.4641	-32.1517	-26.3765	73.1974	100.0000	
   396	 0.5949	-3.7164	-0.4936	-3.4529	-32.1517	-26.3765	73.1886	100.0000	
   397	 0.6064	-3.7103	-0.4821	-3.4443	-32.1517	-26.3765	73.1733	100.0000	
   398	 0.6152	-3.7059	-0.4718	-3.4364	-32.1517	-26.3765	73.1571	100.0000	
   399	 0.6246	-3.7011	-0.4622	-3.4278	-32.1517	-26.3765	73.1345	100.0000	
   400	 0.6341	-3.6949	-0.4506	-3.4191	-32.1517	-26.3765	73.1251	100.0000	
   401	 0.6444	-3.6870	-0.4383	-3.4075	-32.1517	-26.3765	73.1084	100.0000	
   402	 0.6527	-3.6790	-0.4298	-3.3972	-32.1517	-26.3765	73.0932	100.0000	
   403	 0.6564	-3.6728	-0.4261	-3.3876	-32.1517	-26.3765	73.0711	100.0000	
   404	 0.6641	-3.6640	-0.4150	-3.3744	-32.1517	-26.3765	73.0534	100.0000	
   405	 0.6732	-3.6529	-0.4031	-3.3594	-32.1517	-26.3765	73.0362	100.0000	
   406	 0.6851	-3.6401	-0.3898	-3.3425	-32.1517	-26.3765	73.0127	100.0000	
   407	 0.6993	-3.6219	-0.3750	-3.3196	-32.1517	-26.3765	72.9825	100.0000	
   408	 0.7136	-3.5997	-0.3606	-3.2935	-32.1517	-26.3765	72.9528	100.0000	
   409	 0.7221	-3.5775	-0.3555	-3.2672	-32.1517	-26.3765	72.9114	100.0000	
   410	 0.7217	-3.5623	-0.3582	-3.2509	-32.1517	-26.3765	72.8914	100.0000	
   411	 0.7366	-3.5423	-0.3382	-3.2235	-32.1517	-26.3765	72.8578	100.0000	
   412	 0.7629	-3.5060	-0.3121	-3.1849	-32.1517	-26.3765	72.8349	100.0000	
   413	 0.7828	-3.4789	-0.2933	-3.1558	-32.1517	-26.3765	72.8130	100.0000	
   414	 0.8014	-3.4528	-0.2727	-3.1281	-32.1517	-26.3765	72.8032	100.0000	
   415	 0.8232	-3.4271	-0.2520	-3.0990	-32.1517	-26.3765	72.7739	100.0000	
   416	 0.8448	-3.4041	-0.2322	-3.0742	-32.1517	-26.3765	72.7525	100.0000	
   417	 0.8677	-3.3816	-0.2111	-3.0485	-32.1517	-26.3765	72.7237	100.0000	
   418	 0.8920	-3.3581	-0.1876	-3.0237	-32.1517	-26.3765	72.7086	100.0000	
   419	 0.9095	-3.3391	-0.1773	-3.0050	-32.1517	-26.3765	72.6842	100.0000	
   420	 0.9193	-3.3276	-0.1712	-2.9937	-32.1517	-26.3765	72.6720	100.0000	
   421	 0.9297	-3.3183	-0.1670	-2.9863	-32.1517	-26.3765	72.6617	100.0000	
   422	 0.9337	-3.3170	-0.1728	-2.9900	-32.1517	-26.3765	72.6616	100.0000	
   423	 0.9347	-3.3215	-0.1807	-2.9999	-32.1517	-26.3765	72.6683	100.0000	
   424	 0.9336	-3.3300	-0.1908	-3.0148	-32.1517	-26.3765	72.6824	100.0000	
   425	 0.9331	-3.3380	-0.2000	-3.0269	-32.1517	-26.3765	72.6818	100.0000	
   426	 0.9220	-3.3491	-0.2193	-3.0430	-32.1517	-26.3765	72.6885	100.0000	
   427	 0.9094	-3.3637	-0.2324	-3.0562	-32.1517	-26.3765	72.6821	100.0000	
   428	 0.9053	-3.3663	-0.2343	-3.0587	-32.1517	-26.3765	72.6880	100.0000	
   429	 0.9073	-3.3663	-0.2355	-3.0570	-32.1517	-26.3765	72.6685	100.0000	
   430	 0.9087	-3.3641	-0.2373	-3.0570	-32.1517	-26.3765	72.6709	100.0000	
   431	 0.9061	-3.3632	-0.2435	-3.0573	-32.1517	-26.3765	72.6665	100.0000	
   432	 0.9070	-3.3601	-0.2440	-3.0565	-32.1517	-26.3765	72.6747	100.0000	
   433	 0.9178	-3.3544	-0.2407	-3.0519	-32.1517	-26.3765	72.6581	100.0000	
   434	 0.9319	-3.3478	-0.2325	-3.0478	-32.1517	-26.3765	72.6545	100.0000	
   435	 0.9488	-3.3382	-0.2223	-3.0413	-32.1517	-26.3765	72.6515	100.0000	
   436	 0.9611	-3.3303	-0.2116	-3.0355	-32.1517	-26.3765	72.6594	100.0000	
   437	 0.9810	-3.3135	-0.1915	-3.0274	-32.1517	-26.3765	72.7096	100.0000	
   438	 0.9972	-3.2954	-0.1715	-3.0096	-32.1517	-26.3765	72.7204	100.0000	
   439	 1.0111	-3.2812	-0.1572	-2.9956	-32.1517	-26.3765	72.7194	100.0000	
   440	 1.0254	-3.2720	-0.1456	-2.9869	-32.1517	-26.3765	72.7135	100.0000	
   441	 1.0145	-3.2906	-0.1734	-3.0121	-32.1517	-26.3765	72.7048	100.0000	
   442	 0.9997	-3.3195	-0.2005	-3.0465	-32.1517	-26.3765	72.7075	100.0000	
   443	 0.9816	-3.3493	-0.2376	-3.0837	-32.1517	-26.3765	72.7008	100.0000	
   444	 0.9540	-3.3852	-0.2794	-3.1276	-32.1517	-26.3765	72.7127	100.0000	
   445	 0.9263	-3.4224	-0.3199	-3.1706	-32.1517	-26.3765	72.7164	100.0000	
   446	 0.8950	-3.4645	-0.3662	-3.2198	-32.1517	-26.3765	72.7221	100.0000	
   447	 0.8623	-3.5102	-0.4132	-3.2695	-32.1517	-26.3765	72.7124	100.0000	
   448	 0.8258	-3.5518	-0.4575	-3.3150	-32.1517	-26.3765	72.7201	100.0000	
   449	 0.7935	-3.5894	-0.4903	-3.3531	-32.1517	-26.3765	72.7294	100.0000	
   450	 0.7821	-3.6045	-0.4971	-3.3647	-32.1517	-26.3765	72.7265	100.0000	
   451	 0.7813	-3.6076	-0.4953	-3.3660	-32.1517	-26.3765	72.7246	100.0000	
   452	 0.7803	-3.6134	-0.4957	-3.3614	-32.1517	-26.3765	72.6656	100.0000	
   453	 0.7759	-3.6227	-0.5060	-3.3705	-32.1517	-26.3765	72.6484	100.0000	
   454	 0.7708	-3.6311	-0.5089	-3.3784	-32.1517	-26.3765	72.6543	100.0000	
   455	 0.7631	-3.6387	-0.5174	-3.3862	-32.1517	-26.3765	72.6553	100.0000	
   456	 0.7669	-3.6311	-0.5120	-3.3779	-32.1517	-26.3765	72.6538	100.0000	
   457	 0.7560	-3.6381	-0.5278	-3.3870	-32.1517	-26.3765	72.6507	100.0000	
   458	 0.7408	-3.6518	-0.5458	-3.4010	-32.1517	-26.3765	72.6461	100.0000	
   459	 0.7166	-3.6739	-0.5811	-3.4286	-32.1517	-26.3765	72.6484	100.0000	
   460	 0.6886	-3.7049	-0.6185	-3.4612	-32.1517	-26.3765	72.6346	100.0000	
   461	 0.6730	-3.7253	-0.6361	-3.4798	-32.1517	-26.3765	72.6220	100.0000	
   462	 0.6728	-3.7279	-0.6385	-3.4790	-32.1517	-26.3765	72.5941	100.0000	
   463	 0.6748	-3.7280	-0.6347	-3.4765	-32.1517	-26.3765	72.5853	100.0000	
   464	 0.6741	-3.7284	-0.6385	-3.4790	-32.1517	-26.3765	72.5877	100.0000	
   465	 0.6703	-3.7386	-0.6472	-3.4906	-32.1517	-26.3765	72.5842	100.0000	
   466	 0.6643	-3.7515	-0.6590	-3.5043	-32.1517	-26.3765	72.5743	100.0000	
   467	 0.6522	-3.7684	-0.6729	-3.5229	-32.1517	-26.3765	72.5835	100.0000	
   468	 0.6577	-3.7738	-0.6596	-3.5264	-32.1517	-26.3765	72.5993	100.0000	
   469	 0.6794	-3.7611	-0.6374	-3.5120	-32.1517	-26.3765	72.5905	100.0000	
   470	 0.7047	-3.7435	-0.6055	-3.4914	-32.1517	-26.3765	72.5916	100.0000	
   471	 0.7464	-3.7126	-0.5507	-3.4536	-32.1517	-26.3765	72.5871	100.0000	
   472	 0.7964	-3.6636	-0.4851	-3.4004	-32.1517	-26.3765	72.6021	100.0000	
   473	 0.8595	-3.6035	-0.4010	-3.3340	-32.1517	-26.3765	72.6198	100.0000	
   474	 0.9319	-3.5297	-0.3042	-3.2498	-32.1517	-26.3765	72.6197	100.0000	
   475	 0.9990	-3.4567	-0.2199	-3.1700	-32.1517	-26.3765	72.6184	100.0000	
   476	 1.0398	-3.3968	-0.1618	-3.1083	-32.1517	-26.3765	72.6474	100.0000	
   477	 1.0793	-3.3481	-0.1006	-3.0555	-32.1517	-26.3765	72.6806	100.0000	
   478	 1.1223	-3.2945	-0.0483	-2.9988	-32.1517	-26.3765	72.6789	100.0000	
   479	 1.1457	-3.2523	-0.0169	-2.9532	-32.1517	-26.3765	72.6717	100.0000	
   480	 1.1488	-3.2335	-0.0115	-2.9340	-32.1517	-26.3765	72.6698	100.0000	
   481	 1.1568	-3.2193	 0.0004	-2.9191	-32.1517	-26.3765	72.6738	100.0000	
   482	 1.1616	-3.2033	 0.0043	-2.9045	-32.1517	-26.3765	72.6742	100.0000	
   483	 1.1432	-3.2049	-0.0231	-2.9126	-32.1517	-26.3765	72.6821	100.0000	
   484	 1.1124	-3.2287	-0.0608	-2.9393	-32.1517	-26.3765	72.6815	100.0000	
   485	 1.0792	-3.2578	-0.1037	-2.9719	-32.1517	-26.3765	72.6758	100.0000	
   486	 1.0357	-3.2962	-0.1602	-3.0168	-32.1517	-26.3765	72.6803	100.0000	
   487	 0.9912	-3.3418	-0.2213	-3.0659	-32.1517	-26.3765	72.6583	100.0000	
   488	 0.9336	-3.3970	-0.2984	-3.1278	-32.1517	-26.3765	72.6467	100.0000	
   489	 0.8694	-3.4656	-0.3886	-3.2041	-32.1517	-26.3765	72.6251	100.0000	
   490	 0.8077	-3.5364	-0.4666	-3.2823	-32.1517	-26.3765	72.6329	100.0000	
   491	 0.7668	-3.5976	-0.5292	-3.3468	-32.1517	-26.3765	72.5998	100.0000	
   492	 0.7141	-3.6600	-0.6075	-3.4191	-32.1517	-26.3765	72.5923	100.0000	
   493	 0.6589	-3.7318	-0.6799	-3.4961	-32.1517	-26.3765	72.5857	100.0000	
   494	 0.6242	-3.7877	-0.7281	-3.5562	-32.1517	-26.3765	72.5829	100.0000	
   495	 0.5962	-3.8303	-0.7682	-3.6026	-32.1517	-26.3765	72.5786	100.0000	
   496	 0.5652	-3.8684	-0.8085	-3.6431	-32.1517	-26.3765	72.5724	100.0000	
   497	 0.5478	-3.8964	-0.8278	-3.6688	-32.1517	-26.3765	72.5601	100.0000	
   498	 0.5505	-3.9062	-0.8250	-3.6743	-32.1517	-26.3765	72.5379	100.0000	
   499	 0.5565	-3.9049	-0.8156	-3.6706	-32.1517	-26.3765	72.5350	100.0000	
   500	 0.5717	-3.8913	-0.7951	-3.6537	-32.1517	-26.3765	72.5303	100.0000	
   501	 0.5880	-3.8704	-0.7723	-3.6305	-32.1517	-26.3765	72.5319	100.0000	
   502	 0.6024	-3.8482	-0.7481	-3.6053	-32.1517	-26.3765	72.5387	100.0000	
   503	 0.6254	-3.8230	-0.7139	-3.5747	-32.1517	-26.3765	72.5365	100.0000	
   504	 0.6624	-3.7837	-0.6548	-3.5281	-32.1517	-26.3765	72.5551	100.0000	
   505	 0.7080	-3.7323	-0.5901	-3.4682	-32.1517	-26.3765	72.5532	100.0000	
   506	 0.7530	-3.6787	-0.5247	-3.4066	-32.1517	-26.3765	72.5579	100.0000	
   507	 0.7921	-3.6251	-0.4671	-3.3441	-32.1517	-26.3765	72.5497	100.0000	
   508	 0.8212	-3.5740	-0.4215	-3.2870	-32.1517	-26.3765	72.5508	100.0000	
   509	 0.8514	-3.5275	-0.3774	-3.2331	-32.1517	-26.3765	72.5390	100.0000	
   510	 0.8819	-3.4755	-0.3322	-3.1726	-32.1517	-26.3765	72.5195	100.0000	
   511	 0.9038	-3.4253	-0.2968	-3.1111	-32.1517	-26.3765	72.4797	100.0000	
   512	 0.9080	-3.3878	-0.2844	-3.0669	-32.1517	-26.3765	72.4517	100.0000	
   513	 0.8886	-3.3720	-0.3004	-3.0459	-32.1517	-26.3765	72.4209	100.0000	
   514	 0.8644	-3.3708	-0.3284	-3.0422	-32.1517	-26.3765	72.3882	100.0000	
   515	 0.8381	-3.3737	-0.3597	-3.0444	-32.1517	-26.3765	72.3638	100.0000	
   516	 0.8169	-3.3770	-0.3837	-3.0454	-32.1517	-26.3765	72.3375	100.0000	
   517	 0.7964	-3.3799	-0.4115	-3.0489	-32.1517	-26.3765	72.3145	100.0000	
   518	 0.7633	-3.3872	-0.4505	-3.0572	-32.1517	-26.3765	72.2985	100.0000	
   519	 0.7299	-3.3971	-0.4947	-3.0676	-32.1517	-26.3765	72.2640	100.0000	
   520	 0.6947	-3.4056	-0.5450	-3.0809	-32.1517	-26.3765	72.2401	100.0000	
   521	 0.6587	-3.4173	-0.5993	-3.0979	-32.1517	-26.3765	72.2111	100.0000	
   522	 0.6211	-3.4339	-0.6552	-3.1207	-32.1517	-26.3765	72.1894	100.0000	
   523	 0.5833	-3.4518	-0.7167	-3.1459	-32.1517	-26.3765	72.1567	100.0000	
   524	 0.5302	-3.4758	-0.7933	-3.1786	-32.1517	-26.3765	72.1320	100.0000	
   525	 0.4687	-3.5091	-0.8835	-3.2223	-32.1517	-26.3765	72.1034	100.0000	
   526	 0.4009	-3.5491	-0.9841	-3.2777	-32.1517	-26.3765	72.0923	100.0000	
   527	 0.3317	-3.5899	-1.0871	-3.3322	-32.1517	-26.3765	72.0677	100.0000	
   528	 0.2724	-3.6192	-1.1747	-3.3730	-32.1517	-26.3765	72.0458	100.0000	
   529	 0.2184	-3.6347	-1.2514	-3.3973	-32.1517	-26.3765	72.0196	100.0000	
   530	 0.1626	-3.6488	-1.3225	-3.4178	-32.1517	-26.3765	72.0033	100.0000	
   531	 0.1110	-3.6577	-1.3806	-3.4277	-32.1517	-26.3765	71.9808	100.0000	
   532	 0.0695	-3.6612	-1.4254	-3.4289	-32.1517	-26.3765	71.9482	100.0000	
   533	 0.0402	-3.6583	-1.4582	-3.4235	-32.1517	-26.3765	71.9152	100.0000	
   534	 0.0077	-3.6534	-1.4922	-3.4177	-32.1517	-26.3765	71.8957	100.0000	
   535	-0.0276	-3.6531	-1.5262	-3.4132	-32.1517	-26.3765	71.8669	100.0000	
   536	-0.0575	-3.6492	-1.5514	-3.4041	-32.1517	-26.3765	71.8428	100.0000	
   537	-0.0780	-3.6405	-1.5647	-3.3898	-32.1517	-26.3765	71.8239	100.0000	
   538	-0.0951	-3.6309	-1.5718	-3.3751	-32.1517	-26.3765	71.8177	100.0000	
   539	-0.1064	-3.6228	-1.5741	-3.3609	-32.1517	-26.3765	71.8045	100.0000	
   540	-0.1117	-3.6120	-1.5652	-3.3455	-32.1517	-26.3765	71.8172	100.0000	
   541	-0.1049	-3.5973	-1.5425	-3.3236	-32.1517	-26.3765	71.8207	100.0000	
   542	-0.0793	-3.5730	-1.4952	-3.2894	-32.1517	-26.3765	71.8268	100.0000	
   543	-0.0372	-3.5355	-1.4317	-3.2412	-32.1517	-26.3765	71.8251	100.0000	
   544	 0.0058	-3.4948	-1.3669	-3.1909	-32.1517	-26.3765	71.8305	100.0000	
   545	 0.0450	-3.4618	-1.3131	-3.1501	-32.1517	-26.3765	71.8261	100.0000	
   546	 0.0781	-3.4340	-1.2746	-3.1204	-32.1517	-26.3765	71.8282	100.0000	
   547	 0.1050	-3.4101	-1.2438	-3.0956	-32.1517	-26.3765	71.8317	100.0000	
   548	 0.1305	-3.3885	-1.2168	-3.0734	-32.1517	-26.3765	71.8295	100.0000	
   549	 0.1584	-3.3691	-1.1868	-3.0528	-32.1517	-26.3765	71.8269	100.0000	
   550	 0.1891	-3.3480	-1.1531	-3.0310	-32.1517	-26.3765	71.8308	100.0000	
   551	 0.2152	-3.3287	-1.1250	-3.0117	-32.1517	-26.3765	71.8356	100.0000	
   552	 0.2318	-3.3127	-1.1082	-2.9972	-32.1517	-26.3765	71.8421	100.0000	
   553	 0.2484	-3.2982	-1.0895	-2.9815	-32.1517	-26.3765	71.8399	100.0000	
   554	 0.2698	-3.2792	-1.0639	-2.9613	-32.1517	-26.3765	71.8433	100.0000	
   555	 0.2958	-3.2585	-1.0331	-2.9378	-32.1517	-26.3765	71.8389	100.0000	
   556	 0.3240	-3.2364	-0.9993	-2.9148	-32.1517	-26.3765	71.8484	100.0000	
   557	 0.3451	-3.2215	-0.9795	-2.9008	-32.1517	-26.3765	71.8484	100.0000	
   558	 0.3564	-3.2194	-0.9690	-2.9001	-32.1517	-26.3765	71.8557	100.0000	
   559	 0.3714	-3.2200	-0.9531	-2.9006	-32.1517	-26.3765	71.8618	100.0000	
   560	 0.3955	-3.2108	-0.9256	-2.8913	-32.1517	-26.3765	71.8730	100.0000	
   561	 0.4202	-3.2040	-0.9002	-2.8857	-32.1517	-26.3765	71.8859	100.0000	
   562	 0.4379	-3.2028	-0.8824	-2.8863	-32.1517	-26.3765	71.8998	100.0000	
   563	 0.4455	-3.2082	-0.8774	-2.8939	-32.1517	-26.3765	71.9085	100.0000	
   564	 0.4430	-3.2176	-0.8806	-2.9068	-32.1517	-26.3765	71.9311	100.0000	
   565	 0.4377	-3.2287	-0.8894	-2.9210	-32.1517	-26.3765	71.9412	100.0000	
   566	 0.4304	-3.2425	-0.9014	-2.9384	-32.1517	-26.3765	71.9521	100.0000	
   567	 0.4249	-3.2576	-0.9116	-2.9558	-32.1517	-26.3765	71.9557	100.0000	
   568	 0.4249	-3.2692	-0.9124	-2.9696	-32.1517	-26.3765	71.9709	100.0000	
   569	 0.4263	-3.2786	-0.9156	-2.9825	-32.1517	-26.3765	71.9814	100.0000	
   570	 0.4189	-3.2937	-0.9283	-3.0016	-32.1517	-26.3765	71.9928	100.0000	
   571	 0.4087	-3.3119	-0.9461	-3.0227	-32.1517	-26.3765	71.9912	100.0000	
   572	 0.3919	-3.3305	-0.9676	-3.0451	-32.1517	-26.3765	72.0026	100.0000	
   573	 0.3758	-3.3487	-0.9890	-3.0662	-32.1517	-26.3765	72.0070	100.0000	
   574	 0.3498	-3.3680	-1.0236	-3.0909	-32.1517	-26.3765	72.0141	100.0000	
   575	 0.3076	-3.3953	-1.0750	-3.1229	-32.1517	-26.3765	72.0152	100.0000	
   576	 0.2689	-3.4190	-1.1200	-3.1484	-32.1517	-26.3765	72.0067	100.0000	
   577	 0.2404	-3.4361	-1.1523	-3.1668	-32.1517	-26.3765	72.0033	100.0000	
   578	 0.2242	-3.4440	-1.1669	-3.1750	-32.1517	-26.3765	72.0102	100.0000	
   579	 0.2176	-3.4457	-1.1730	-3.1754	-32.1517	-26.3765	72.0028	100.0000	
   580	 0.2170	-3.4435	-1.1686	-3.1725	-32.1517	-26.3765	72.0141	100.0000	
   581	 0.2307	-3.4333	-1.1507	-3.1597	-32.1517	-26.3765	72.0105	100.0000	
   582	 0.2481	-3.4157	-1.1306	-3.1407	-32.1517	-26.3765	72.0078	100.0000	
   583	 0.2609	-3.3984	-1.1185	-3.1220	-32.1517	-26.3765	71.9930	100.0000	
   584	 0.2738	-3.3784	-1.1074	-3.0992	-32.1517	-26.3765	71.9643	100.0000	
   585	 0.2858	-3.3526	-1.0996	-3.0713	-32.1517	-26.3765	71.9298	100.0000	
   586	 0.2833	-3.3285	-1.1079	-3.0453	-32.1517	-26.3765	71.8896	100.0000	
   587	 0.2708	-3.3056	-1.1243	-3.0209	-32.1517	-26.3765	71.8559	100.0000	
   588	 0.2493	-3.2821	-1.1504	-2.9955	-32.1517	-26.3765	71.8157	100.0000	
   589	 0.2244	-3.2595	-1.1776	-2.9685	-32.1517	-26.3765	71.7667	100.0000	
   590	 0.2002	-3.2351	-1.2036	-2.9406	-32.1517	-26.3765	71.7246	100.0000	
   591	 0.1679	-3.2174	-1.2397	-2.9193	-32.1517	-26.3765	71.6769	100.0000	
   592	 0.1269	-3.2013	-1.2827	-2.9001	-32.1517	-26.3765	71.6358	100.0000	
   593	 0.0826	-3.1848	-1.3325	-2.8803	-32.1517	-26.3765	71.5826	100.0000	
   594	 0.0350	-3.1704	-1.3847	-2.8622	-32.1517	-26.3765	71.5290	100.0000	
   595	-0.0267	-3.1613	-1.4570	-2.8510	-32.1517	-26.3765	71.4651	100.0000	
   596	-0.1130	-3.1693	-1.5550	-2.8613	-32.1517	-26.3765	71.4250	100.0000	
   597	-0.2087	-3.1937	-1.6619	-2.8881	-32.1517	-26.3765	71.3924	100.0000	
   598	-0.3074	-3.2253	-1.7711	-2.9212	-32.1517	-26.3765	71.3593	100.0000	
   599	-0.3996	-3.2565	-1.8709	-2.9519	-32.1517	-26.3765	71.3238	100.0000	
   600	-0.4834	-3.2887	-1.9597	-2.9840	-32.1517	-26.3765	71.3010	100.0000	
   601	-0.5477	-3.3134	-2.0287	-3.0105	-32.1517	-26.3765	71.2919	100.0000	
   602	-0.6093	-3.3365	-2.1032	-3.0381	-32.1517	-26.3765	71.2732	100.0000	
   603	-0.6909	-3.3776	-2.1941	-3.0848	-32.1517	-26.3765	71.2752	100.0000	
   604	-0.7607	-3.4188	-2.2690	-3.1295	-32.1517	-26.3765	71.2814	100.0000	
   605	-0.8165	-3.4549	-2.3307	-3.1694	-32.1517	-26.3765	71.2876	100.0000	
   606	-0.8662	-3.4870	-2.3900	-3.2089	-32.1517	-26.3765	71.3034	100.0000	
   607	-0.9208	-3.5248	-2.4619	-3.2554	-32.1517	-26.3765	71.3020	100.0000	
   608	-0.9821	-3.5773	-2.5375	-3.3114	-32.1517	-26.3765	71.2837	100.0000	
   609	-1.0377	-3.6210	-2.6030	-3.3646	-32.1517	-26.3765	71.3150	100.0000	
   610	-1.0779	-3.6598	-2.6516	-3.4092	-32.1517	-26.3765	71.3294	100.0000	
   611	-1.1070	-3.6877	-2.6864	-3.4402	-32.1517	-26.3765	71.3344	100.0000	
   612	-1.1291	-3.7071	-2.7128	-3.4621	-32.1517	-26.3765	71.3382	100.0000	
   613	-1.1490	-3.7225	-2.7384	-3.4810	-32.1517	-26.3765	71.3428	100.0000	
   614	-1.1731	-3.7419	-2.7674	-3.5058	-32.1517	-26.3765	71.3619	100.0000	
   615	-1.2017	-3.7617	-2.8013	-3.5301	-32.1517	-26.3765	71.3739	100.0000	
   616	-1.2373	-3.7886	-2.8404	-3.5589	-32.1517	-26.3765	71.3776	100.0000	
   617	-1.2624	-3.8151	-2.8627	-3.5842	-32.1517	-26.3765	71.3843	100.0000	
   618	-1.2611	-3.8259	-2.8620	-3.5934	-32.1517	-26.3765	71.3772	100.0000	
   619	-1.2630	-3.8361	-2.8687	-3.6038	-32.1517	-26.3765	71.3654	100.0000	
   620	-1.2617	-3.8598	-2.8787	-3.6174	-32.1517	-26.3765	71.2751	100.0000	
   621	-1.2656	-3.8817	-2.8892	-3.6303	-32.1517	-26.3765	71.2045	100.0000	
   622	-1.2639	-3.8973	-2.8860	-3.6378	-32.1517	-26.3765	71.1659	100.0000	
   623	-1.2543	-3.9014	-2.8781	-3.6388	-32.1517	-26.3765	71.1441	100.0000	
   624	-1.2517	-3.9126	-2.8814	-3.6433	-32.1517	-26.3765	71.0878	100.0000	
   625	-1.2564	-3.9260	-2.8904	-3.6516	-32.1517	-26.3765	71.0457	100.0000	
   626	-1.2584	-3.9389	-2.8964	-3.6590	-32.1517	-26.3765	71.0033	100.0000	
   627	-1.2566	-3.9519	-2.9003	-3.6628	-32.1517	-26.3765	70.9319	100.0000	
   628	-1.2515	-3.9667	-2.9017	-3.6661	-32.1517	-26.3765	70.8459	100.0000	
   629	-1.2564	-3.9711	-2.9050	-3.6694	-32.1517	-26.3765	70.8451	100.0000	
   630	-1.2578	-3.9733	-2.9044	-3.6702	-32.1517	-26.3765	70.8438	100.0000	
   631	-1.2585	-3.9738	-2.9038	-3.6698	-32.1517	-26.3765	70.8430	100.0000	
   632	-1.2572	-3.9742	-2.9006	-3.6690	-32.1517	-26.3765	70.8418	100.0000	
   633	-1.2525	-3.9725	-2.8931	-3.6666	-32.1517	-26.3765	70.8472	100.0000	
   634	-1.2450	-3.9676	-2.8818	-3.6617	-32.1517	-26.3765	70.8594	100.0000	
   635	-1.2422	-3.9516	-2.8704	-3.6543	-32.1517	-26.3765	70.9363	100.0000	
   636	-1.2381	-3.9373	-2.8589	-3.6469	-32.1517	-26.3765	70.9990	100.0000	
   637	-1.2321	-3.9244	-2.8474	-3.6382	-32.1517	-26.3765	71.0401	100.0000	
   638	-1.2253	-3.9098	-2.8328	-3.6288	-32.1517	-26.3765	71.0947	100.0000	
   639	-1.2134	-3.8956	-2.8143	-3.6169	-32.1517	-26.3765	71.1275	100.0000	
   640	-1.2000	-3.8792	-2.7933	-3.6033	-32.1517	-26.3765	71.1671	100.0000	
   641	-1.1859	-3.8624	-2.7717	-3.5893	-32.1517	-26.3765	71.2067	100.0000	
   642	-1.1764	-3.8446	-2.7538	-3.5778	-32.1517	-26.3765	71.2684	100.0000	
   643	-1.1720	-3.8264	-2.7417	-3.5687	-32.1517	-26.3765	71.3456	100.0000	
   644	-1.1625	-3.8202	-2.7315	-3.5622	-32.1517	-26.3765	71.3447	100.0000	
   645	-1.1564	-3.8163	-2.7251	-3.5581	-32.1517	-26.3765	71.3443	100.0000	
   646	-1.1523	-3.8136	-2.7207	-3.5564	-32.1517	-26.3765	71.3515	100.0000	
   647	-1.1509	-3.8127	-2.7207	-3.5552	-32.1517	-26.3765	71.3447	100.0000	
   648	-1.1515	-3.8118	-2.7225	-3.5552	-32.1517	-26.3765	71.3456	100.0000	
   649	-1.1529	-3.8127	-2.7244	-3.5564	-32.1517	-26.3765	71.3460	100.0000	
   650	-1.1535	-3.8118	-2.7232	-3.5568	-32.1517	-26.3765	71.3598	100.0000	
   651	-1.1508	-3.8101	-2.7200	-3.5548	-32.1517	-26.3765	71.3594	100.0000	
   652	-1.1473	-3.8065	-2.7149	-3.5515	-32.1517	-26.3765	71.3657	100.0000	
   653	-1.1439	-3.8043	-2.7123	-3.5486	-32.1517	-26.3765	71.3586	100.0000	
   654	-1.1444	-3.8021	-2.7141	-3.5473	-32.1517	-26.3765	71.3594	100.0000	
   655	-1.1490	-3.8025	-2.7209	-3.5481	-32.1517	-26.3765	71.3535	100.0000	
   656	-1.1577	-3.8042	-2.7308	-3.5509	-32.1517	-26.3765	71.3548	100.0000	
   657	-1.1676	-3.8054	-2.7432	-3.5528	-32.1517	-26.3765	71.3493	100.0000	
   658	-1.1801	-3.8071	-2.7568	-3.5556	-32.1517	-26.3765	71.3505	100.0000	
   659	-1.1946	-3.8087	-2.7723	-3.5584	-32.1517	-26.3765	71.3518	100.0000	
   660	-1.1997	-3.8055	-2.7771	-3.5567	-32.1517	-26.3765	71.3593	100.0000	
   661	-1.2067	-3.8037	-2.7875	-3.5561	-32.1517	-26.3765	71.3543	100.0000	
   662	-1.2121	-3.8175	-2.8030	-3.5589	-32.1517	-26.3765	71.2559	100.0000	
   663	-1.2266	-3.8191	-2.8196	-3.5600	-32.1517	-26.3765	71.2429	100.0000	
   664	-1.2475	-3.8287	-2.8475	-3.5660	-32.1517	-26.3765	71.1957	100.0000	
   665	-1.2665	-3.8410	-2.8741	-3.5699	-32.1517	-26.3765	71.1189	100.0000	
   666	-1.2953	-3.8519	-2.9076	-3.5770	-32.1517	-26.3765	71.0781	100.0000	
   667	-1.3203	-3.8641	-2.9398	-3.5834	-32.1517	-26.3765	71.0164	100.0000	
   668	-1.3485	-3.8759	-2.9678	-3.5906	-32.1517	-26.3765	70.9876	100.0000	
   669	-1.3465	-3.8759	-2.9772	-3.5943	-32.1517	-26.3765	70.9723	100.0000	
   670	-1.3422	-3.8692	-2.9877	-3.5962	-32.1517	-26.3765	70.9742	100.0000	
   671	-1.3474	-3.8687	-2.9946	-3.5982	-32.1517	-26.3765	70.9830	100.0000	
   672	-1.3267	-3.8618	-2.9917	-3.6012	-32.1517	-26.3765	70.9862	100.0000	
   673	-1.3185	-3.8565	-2.9872	-3.5983	-32.1517	-26.3765	70.9882	100.0000	
   674	-1.3090	-3.8504	-2.9795	-3.5921	-32.1517	-26.3765	70.9815	100.0000	
   675	-1.3150	-3.8517	-2.9869	-3.5921	-32.1517	-26.3765	70.9677	100.0000	
   676	-1.3249	-3.8542	-2.9925	-3.5933	-32.1517	-26.3765	70.9728	100.0000	
   677	-1.3333	-3.8403	-2.9898	-3.5891	-32.1517	-26.3765	71.0636	100.0000	
   678	-1.3332	-3.8376	-2.9860	-3.5866	-32.1517	-26.3765	71.0762	100.0000	
   679	-1.3260	-3.8279	-2.9715	-3.5797	-32.1517	-26.3765	71.1162	100.0000	
   680	-1.3227	-3.8154	-2.9595	-3.5744	-32.1517	-26.3765	71.1855	100.0000	
   681	-1.3117	-3.8057	-2.9437	-3.5666	-32.1517	-26.3765	71.2121	100.0000	
   682	-1.3065	-3.7959	-2.9324	-3.5617	-32.1517	-26.3765	71.2604	100.0000	
   683	-1.2995	-3.7875	-2.9266	-3.5568	-32.1517	-26.3765	71.2758	100.0000	
   684	-1.3206	-3.7908	-2.9352	-3.5562	-32.1517	-26.3765	71.2911	100.0000	
   685	-1.3388	-3.8000	-2.9357	-3.5554	-32.1517	-26.3765	71.2880	100.0000	
   686	-1.3415	-3.8004	-2.9336	-3.5504	-32.1517	-26.3765	71.2700	100.0000	
   687	-1.3647	-3.8051	-2.9344	-3.5425	-32.1517	-26.3765	71.2640	100.0000	
   688	-1.3693	-3.8055	-2.9292	-3.5379	-32.1517	-26.3765	71.2653	100.0000	
   689	-1.3713	-3.8055	-2.9235	-3.5342	-32.1517	-26.3765	71.2679	100.0000	
   690	-1.3632	-3.8016	-2.9090	-3.5273	-32.1517	-26.3765	71.2709	100.0000	
   691	-1.3451	-3.7950	-2.8863	-3.5162	-32.1517	-26.3765	71.2597	100.0000	
   692	-1.3283	-3.7867	-2.8630	-3.5060	-32.1517	-26.3765	71.2698	100.0000	
   693	-1.3102	-3.7802	-2.8385	-3.4950	-32.1517	-26.3765	71.2649	100.0000	
   694	-1.2927	-3.7728	-2.8128	-3.4844	-32.1517	-26.3765	71.2736	100.0000	
   695	-1.2727	-3.7663	-2.7839	-3.4730	-32.1517	-26.3765	71.2745	100.0000	
   696	-1.2500	-3.7581	-2.7489	-3.4600	-32.1517	-26.3765	71.2879	100.0000	
   697	-1.2225	-3.7481	-2.7062	-3.4433	-32.1517	-26.3765	71.2992	100.0000	
   698	-1.1923	-3.7350	-2.6579	-3.4230	-32.1517	-26.3765	71.3159	100.0000	
   699	-1.1568	-3.7211	-2.6044	-3.3980	-32.1517	-26.3765	71.3102	100.0000	
   700	-1.1157	-3.7023	-2.5420	-3.3686	-32.1517	-26.3765	71.3169	100.0000	
   701	-1.0705	-3.6796	-2.4751	-3.3350	-32.1517	-26.3765	71.3233	100.0000	
   702	-1.0213	-3.6542	-2.4013	-3.2982	-32.1517	-26.3765	71.3348	100.0000	
   703	-0.9659	-3.6262	-2.3211	-3.2573	-32.1517	-26.3765	71.3385	100.0000	
   704	-0.9072	-3.5960	-2.2365	-3.2147	-32.1517	-26.3765	71.3486	100.0000	
   705	-0.8445	-3.5645	-2.1476	-3.1705	-32.1517	-26.3765	71.3582	100.0000	
   706	-0.7789	-3.5299	-2.0567	-3.1238	-32.1517	-26.3765	71.3686	100.0000	
   707	-0.7108	-3.4949	-1.9645	-3.0776	-32.1517	-26.3765	71.3795	100.0000	
   708	-0.6385	-3.4572	-1.8699	-3.0297	-32.1517	-26.3765	71.3912	100.0000	
   709	-0.5609	-3.4174	-1.7733	-2.9806	-32.1517	-26.3765	71.3975	100.0000	
   710	-0.4839	-3.3780	-1.6818	-2.9347	-32.1517	-26.3765	71.4067	100.0000	
   711	-0.4123	-3.3394	-1.6015	-2.8913	-32.1517	-26.3765	71.4055	100.0000	
   712	-0.3473	-3.3026	-1.5324	-2.8515	-32.1517	-26.3765	71.4002	100.0000	
   713	-0.2957	-3.2705	-1.4821	-2.8190	-32.1517	-26.3765	71.3916	100.0000	
   714	-0.2687	-3.2467	-1.4632	-2.7996	-32.1517	-26.3765	71.3883	100.0000	
   715	-0.2773	-3.2368	-1.4888	-2.7968	-32.1517	-26.3765	71.3701	100.0000	
   716	-0.3255	-3.2434	-1.5571	-2.8132	-32.1517	-26.3765	71.3555	100.0000	
   717	-0.4077	-3.2720	-1.6718	-2.8475	-32.1517	-26.3765	71.2755	100.0000	
   718	-0.5410	-3.3117	-1.8501	-2.8999	-32.1517	-26.3765	71.1894	100.0000	
   719	-0.7188	-3.3724	-2.0647	-2.9771	-32.1517	-26.3765	71.1536	100.0000	
   720	-0.9273	-3.4452	-2.3175	-3.0667	-32.1517	-26.3765	71.0931	100.0000	
   721	-1.1607	-3.5276	-2.5997	-3.1682	-32.1517	-26.3765	71.0281	100.0000	
   722	-1.4115	-3.6175	-2.9026	-3.2783	-32.1517	-26.3765	70.9585	100.0000	
   723	-1.6719	-3.7148	-3.2176	-3.3961	-32.1517	-26.3765	70.8829	100.0000	
   724	-1.9310	-3.8125	-3.5289	-3.5140	-32.1517	-26.3765	70.8135	100.0000	
   725	-2.1848	-3.9081	-3.8327	-3.6282	-32.1517	-26.3765	70.7424	100.0000	
   726	-2.4407	-4.0077	-4.1356	-3.7479	-32.1517	-26.3765	70.6916	100.0000	
   727	-2.7018	-4.1171	-4.4414	-3.8767	-32.1517	-26.3765	70.6474	100.0000	
   728	-2.9666	-4.2327	-4.7420	-4.0106	-32.1517	-26.3765	70.6284	100.0000	
   729	-3.2196	-4.3497	-5.0173	-4.1402	-32.1517	-26.3765	70.6229	100.0000	
   730	-3.4367	-4.4564	-5.2431	-4.2523	-32.1517	-26.3765	70.6222	100.0000	
   731	-3.6054	-4.5422	-5.4117	-4.3383	-32.1517	-26.3765	70.6215	100.0000	
   732	-3.7317	-4.5967	-5.5253	-4.3960	-32.1517	-26.3765	70.6785	100.0000	
   733	-3.7980	-4.6344	-5.5658	-4.4294	-32.1517	-26.3765	70.7410	100.0000	
   734	-3.8110	-4.6441	-5.5641	-4.4319	-32.1517	-26.3765	70.7474	100.0000	
   735	-3.7945	-4.6411	-5.5330	-4.4239	-32.1517	-26.3765	70.7683	100.0000	
   736	-3.7671	-4.6325	-5.4925	-4.4122	-32.1517	-26.3765	70.7975	100.0000	
   737	-3.7465	-4.6269	-5.4615	-4.4054	-32.1517	-26.3765	70.8289	100.0000	
   738	-3.7452	-4.6260	-5.4504	-4.4043	-32.1517	-26.3765	70.8617	100.0000	
   739	-3.7690	-4.6311	-5.4684	-4.4087	-32.1517	-26.3765	70.8746	100.0000	
   740	-3.8236	-4.6457	-5.5202	-4.4253	-32.1517	-26.3765	70.8906	100.0000	
   741	-3.8982	-4.6668	-5.5950	-4.4471	-32.1517	-26.3765	70.8857	100.0000	
   742	-3.9938	-4.6899	-5.6940	-4.4736	-32.1517	-26.3765	70.8837	100.0000	
   743	-4.1022	-4.7174	-5.8146	-4.5033	-32.1517	-26.3765	70.8405	100.0000	
   744	-4.2277	-4.7469	-5.9561	-4.5465	-32.1517	-26.3765	70.8566	100.0000	
   745	-4.3659	-4.7821	-6.1208	-4.5974	-32.1517	-26.3765	70.8479	100.0000	
   746	-4.5152	-4.8269	-6.3043	-4.6544	-32.1517	-26.3765	70.7895	100.0000	
   747	-4.6555	-4.8737	-6.4818	-4.7160	-32.1517	-26.3765	70.7406	100.0000	
   748	-4.8112	-4.9279	-6.6785	-4.7900	-32.1517	-26.3765	70.7104	100.0000	
   749	-4.9890	-5.0015	-6.8965	-4.8825	-32.1517	-26.3765	70.6806	100.0000	
   750	-5.1840	-5.0888	-7.1190	-4.9901	-32.1517	-26.3765	70.7062	100.0000	
   751	-5.3754	-5.1815	-7.3242	-5.0949	-32.1517	-26.3765	70.7304	100.0000	
   752	-5.5360	-5.2633	-7.4835	-5.1797	-32.1517	-26.3765	70.7516	100.0000	
   753	-5.6509	-5.3246	-7.5860	-5.2363	-32.1517	-26.3765	70.7639	100.0000	
   754	-5.7233	-5.3650	-7.6405	-5.2679	-32.1517	-26.3765	70.7713	100.0000	
   755	-5.7573	-5.3869	-7.6548	-5.2807	-32.1517	-26.3765	70.7836	100.0000	
   756	-5.7610	-5.3931	-7.6413	-5.2804	-32.1517	-26.3765	70.8044	100.0000	
   757	-5.7444	-5.3902	-7.6162	-5.2715	-32.1517	-26.3765	70.7987	100.0000	
   758	-5.7198	-5.3833	-7.5832	-5.2622	-32.1517	-26.3765	70.8164	100.0000	
   759	-5.6822	-5.3681	-7.5450	-5.2363	-32.1517	-26.3765	70.7511	100.0000	
   760	-5.6624	-5.3526	-7.5305	-5.2185	-32.1517	-26.3765	70.7139	100.0000	
   761	-5.6707	-5.3490	-7.5461	-5.2238	-32.1517	-26.3765	70.7423	100.0000	
   762	-5.7294	-5.3689	-7.6138	-5.2506	-32.1517	-26.3765	70.7498	100.0000	
   763	-5.8039	-5.3990	-7.6954	-5.2840	-32.1517	-26.3765	70.7410	100.0000	
   764	-5.8734	-5.4232	-7.7705	-5.3108	-32.1517	-26.3765	70.7310	100.0000	
   765	-5.9233	-5.4361	-7.8343	-5.3231	-32.1517	-26.3765	70.6699	100.0000	
   766	-5.9716	-5.4454	-7.9057	-5.3403	-32.1517	-26.3765	70.6307	100.0000	
   767	-6.0404	-5.4679	-8.0034	-5.3756	-32.1517	-26.3765	70.6045	100.0000	
   768	-6.1311	-5.5072	-8.1198	-5.4292	-32.1517	-26.3765	70.6012	100.0000	
   769	-6.2315	-5.5566	-8.2368	-5.4914	-32.1517	-26.3765	70.6233	100.0000	
   770	-6.3282	-5.6087	-8.3413	-5.5505	-32.1517	-26.3765	70.6399	100.0000	
   771	-6.4041	-5.6526	-8.4137	-5.5949	-32.1517	-26.3765	70.6562	100.0000	
   772	-6.4487	-5.6762	-8.4450	-5.6163	-32.1517	-26.3765	70.6884	100.0000	
   773	-6.4642	-5.6837	-8.4508	-5.6212	-32.1517	-26.3765	70.7065	100.0000	
   774	-6.4736	-5.6885	-8.4542	-5.6270	-32.1517	-26.3765	70.7345	100.0000	
   775	-6.4773	-5.6960	-8.4502	-5.6329	-32.1517	-26.3765	70.7539	100.0000	
   776	-6.4696	-5.6975	-8.4333	-5.6269	-32.1517	-26.3765	70.7401	100.0000	
   777	-6.4467	-5.6879	-8.4046	-5.6180	-32.1517	-26.3765	70.7677	100.0000	
   778	-6.4338	-5.6795	-8.3913	-5.6106	-32.1517	-26.3765	70.7750	100.0000	
   779	-6.4323	-5.6760	-8.3936	-5.6085	-32.1517	-26.3765	70.7691	100.0000	
   780	-6.4609	-5.6842	-8.4244	-5.6211	-32.1517	-26.3765	70.7877	100.0000	
   781	-6.4871	-5.6946	-8.4481	-5.6280	-32.1517	-26.3765	70.7710	100.0000	
   782	-6.4968	-5.6932	-8.4607	-5.6241	-32.1517	-26.3765	70.7408	100.0000	
   783	-6.5084	-5.6890	-8.4890	-5.6254	-32.1517	-26.3765	70.7114	100.0000	
   784	-6.5411	-5.6998	-8.5453	-5.6461	-32.1517	-26.3765	70.6879	100.0000	
   785	-6.5937	-5.7261	-8.6166	-5.6813	-32.1517	-26.3765	70.6784	100.0000	
   786	-6.6560	-5.7612	-8.6901	-5.7240	-32.1517	-26.3765	70.6883	100.0000	
   787	-6.7153	-5.8007	-8.7532	-5.7660	-32.1517	-26.3765	70.6932	100.0000	
   788	-6.7630	-5.8328	-8.7938	-5.7994	-32.1517	-26.3765	70.7294	100.0000	
   789	-6.7849	-5.8496	-8.8018	-5.8118	-32.1517	-26.3765	70.7527	100.0000	
   790	-6.7810	-5.8510	-8.7858	-5.8099	-32.1517	-26.3765	70.7763	100.0000	
   791	-6.7691	-5.8484	-8.7647	-5.8060	-32.1517	-26.3765	70.8017	100.0000	
   792	-6.7546	-5.8468	-8.7416	-5.7983	-32.1517	-26.3765	70.7958	100.0000	
   793	-6.7287	-5.8403	-8.7051	-5.7916	-32.1517	-26.3765	70.8360	100.0000	
   794	-6.7046	-5.8312	-8.6757	-5.7810	-32.1517	-26.3765	70.8480	100.0000	
   795	-6.6777	-5.8203	-8.6448	-5.7671	-32.1517	-26.3765	70.8445	100.0000	
   796	-6.6661	-5.8115	-8.6316	-5.7610	-32.1517	-26.3765	70.8673	100.0000	
   797	-6.6734	-5.8137	-8.6380	-5.7651	-32.1517	-26.3765	70.8832	100.0000	
   798	-6.6754	-5.8137	-8.6335	-5.7622	-32.1517	-26.3765	70.8874	100.0000	
   799	-6.6657	-5.8048	-8.6275	-5.7535	-32.1517	-26.3765	70.8731	100.0000	
   800	-6.6599	-5.7946	-8.6390	-5.7500	-32.1517	-26.3765	70.8514	100.0000	
   801	-6.6722	-5.7923	-8.6699	-5.7556	-32.1517	-26.3765	70.8321	100.0000	
   802	-6.6942	-5.7987	-8.7000	-5.7678	-32.1517	-26.3765	70.8384	100.0000	
   803	-6.7179	-5.8128	-8.7259	-5.7809	-32.1517	-26.3765	70.8253	100.0000	
   804	-6.7358	-5.8269	-8.7417	-5.7899	-32.1517	-26.3765	70.8016	100.0000	
   805	-6.7408	-5.8340	-8.7376	-5.7920	-32.1517	-26.3765	70.8037	100.0000	
   806	-6.7362	-5.8349	-8.7278	-5.7917	-32.1517	-26.3765	70.8158	100.0000	
   807	-6.7266	-5.8390	-8.7075	-5.7919	-32.1517	-26.3765	70.8322	100.0000	
   808	-6.6982	-5.8335	-8.6668	-5.7765	-32.1517	-26.3765	70.8153	100.0000	
   809	-6.6587	-5.8196	-8.6155	-5.7578	-32.1517	-26.3765	70.8303	100.0000	
   810	-6.6131	-5.8018	-8.5570	-5.7430	-32.1517	-26.3765	70.9001	100.0000	
   811	-6.5661	-5.7818	-8.5043	-5.7210	-32.1517	-26.3765	70.9107	100.0000	
   812	-6.5270	-5.7616	-8.4663	-5.7001	-32.1517	-26.3765	70.9017	100.0000	
   813	-6.5253	-5.7554	-8.4699	-5.6975	-32.1517	-26.3765	70.9049	100.0000	
   814	-6.5459	-5.7610	-8.4880	-5.7032	-32.1517	-26.3765	70.9123	100.0000	
   815	-6.5744	-5.7665	-8.5176	-5.7079	-32.1517	-26.3765	70.8978	100.0000	
   816	-6.6035	-5.7711	-8.5511	-5.7138	-32.1517	-26.3765	70.8855	100.0000	
   817	-6.6331	-5.7735	-8.6043	-5.7228	-32.1517	-26.3765	70.8376	100.0000	
   818	-6.6807	-5.7810	-8.6907	-5.7449	-32.1517	-26.3765	70.7842	100.0000	
   819	-6.7578	-5.8115	-8.8096	-5.7976	-32.1517	-26.3765	70.7735	100.0000	
   820	-6.8671	-5.8666	-8.9535	-5.8700	-32.1517	-26.3765	70.7605	100.0000	
   821	-6.9783	-5.9320	-9.0771	-5.9427	-32.1517	-26.3765	70.7653	100.0000	
   822	-7.0604	-5.9825	-9.1580	-5.9949	-32.1517	-26.3765	70.7835	100.0000	
   823	-7.1168	-6.0176	-9.2058	-6.0270	-32.1517	-26.3765	70.7959	100.0000	
   824	-7.1450	-6.0410	-9.2108	-6.0507	-32.1517	-26.3765	70.8832	100.0000	
   825	-7.1482	-6.0494	-9.2002	-6.0475	-32.1517	-26.3765	70.8583	100.0000	
   826	-7.1405	-6.0522	-9.1734	-6.0495	-32.1517	-26.3765	70.9244	100.0000	
   827	-7.1213	-6.0488	-9.1349	-6.0403	-32.1517	-26.3765	70.9595	100.0000	
   828	-7.0830	-6.0332	-9.0828	-6.0187	-32.1517	-26.3765	70.9735	100.0000	
   829	-7.0514	-6.0179	-9.0480	-6.0011	-32.1517	-26.3765	70.9704	100.0000	
   830	-7.0279	-6.0078	-9.0161	-5.9889	-32.1517	-26.3765	70.9887	100.0000	
   831	-7.0218	-6.0052	-9.0142	-5.9876	-32.1517	-26.3765	70.9829	100.0000	
   832	-7.0414	-6.0153	-9.0333	-6.0000	-32.1517	-26.3765	70.9997	100.0000	
   833	-7.0558	-6.0272	-9.0412	-6.0099	-32.1517	-26.3765	71.0126	100.0000	
   834	-7.0694	-6.0360	-9.0539	-6.0181	-32.1517	-26.3765	71.0126	100.0000	
   835	-7.0675	-6.0360	-9.0551	-6.0177	-32.1517	-26.3765	70.9982	100.0000	
   836	-7.0637	-6.0271	-9.0647	-6.0130	-32.1517	-26.3765	70.9743	100.0000	
   837	-7.0894	-6.0295	-9.1181	-6.0258	-32.1517	-26.3765	70.9374	100.0000	
   838	-7.1532	-6.0565	-9.2168	-6.0691	-32.1517	-26.3765	70.9146	100.0000	
   839	-7.2409	-6.1016	-9.3486	-6.1228	-32.1517	-26.3765	70.8126	100.0000	
   840	-7.3417	-6.1577	-9.4843	-6.1924	-32.1517	-26.3765	70.7752	100.0000	
   841	-7.4408	-6.2165	-9.6161	-6.2571	-32.1517	-26.3765	70.6971	100.0000	
   842	-7.5298	-6.2728	-9.7283	-6.3211	-32.1517	-26.3765	70.6669	100.0000	
   843	-7.6036	-6.3256	-9.8162	-6.3791	-32.1517	-26.3765	70.6545	100.0000	
   844	-7.6511	-6.3653	-9.8670	-6.4216	-32.1517	-26.3765	70.6667	100.0000	
   845	-7.6675	-6.3888	-9.8843	-6.4448	-32.1517	-26.3765	70.6678	100.0000	
   846	-7.6569	-6.3974	-9.8718	-6.4512	-32.1517	-26.3765	70.6663	100.0000	
   847	-7.6367	-6.3999	-9.8535	-6.4526	-32.1517	-26.3765	70.6585	100.0000	
   848	-7.6184	-6.3996	-9.8332	-6.4503	-32.1517	-26.3765	70.6565	100.0000	
   849	-7.5933	-6.3860	-9.8040	-6.4327	-32.1517	-26.3765	70.6448	100.0000	
   850	-7.5841	-6.3736	-9.7922	-6.4203	-32.1517	-26.3765	70.6510	100.0000	
   851	-7.5831	-6.3678	-9.7883	-6.4153	-32.1517	-26.3765	70.6653	100.0000	
   852	-7.5796	-6.3629	-9.7856	-6.4111	-32.1517	-26.3765	70.6657	100.0000	
   853	-7.5876	-6.3655	-9.7950	-6.4161	-32.1517	-26.3765	70.6751	100.0000	
   854	-7.5986	-6.3752	-9.7999	-6.4265	-32.1517	-26.3765	70.7043	100.0000	
   855	-7.6030	-6.3832	-9.7991	-6.4331	-32.1517	-26.3765	70.7175	100.0000	
   856	-7.6107	-6.3921	-9.8026	-6.4415	-32.1517	-26.3765	70.7316	100.0000	
   857	-7.6191	-6.4014	-9.8031	-6.4502	-32.1517	-26.3765	70.7596	100.0000	
   858	-7.6101	-6.4033	-9.7847	-6.4492	-32.1517	-26.3765	70.7777	100.0000	
   859	-7.5955	-6.4003	-9.7617	-6.4427	-32.1517	-26.3765	70.7879	100.0000	
   860	-7.5856	-6.3991	-9.7443	-6.4400	-32.1517	-26.3765	70.8070	100.0000	
   861	-7.5777	-6.3991	-9.7246	-6.4369	-32.1517	-26.3765	70.8315	100.0000	
   862	-7.5612	-6.3962	-9.6960	-6.4305	-32.1517	-26.3765	70.8556	100.0000	
   863	-7.5520	-6.3954	-9.6788	-6.4290	-32.1517	-26.3765	70.8824	100.0000	
   864	-7.5505	-6.4048	-9.6726	-6.4382	-32.1517	-26.3765	70.9036	100.0000	
   865	-7.5728	-6.4269	-9.6984	-6.4622	-32.1517	-26.3765	70.9068	100.0000	
   866	-7.5950	-6.4606	-9.7082	-6.4926	-32.1517	-26.3765	70.9398	100.0000	
   867	-7.5546	-6.4642	-9.6416	-6.4858	-32.1517	-26.3765	70.9771	100.0000	
   868	-7.4475	-6.4246	-9.5059	-6.4283	-32.1517	-26.3765	70.9707	100.0000	
   869	-7.3268	-6.3647	-9.3570	-6.3538	-32.1517	-26.3765	70.9792	100.0000	
   870	-7.1798	-6.2903	-9.1730	-6.2651	-32.1517	-26.3765	71.0199	100.0000	
   871	-7.0101	-6.2001	-8.9657	-6.1565	-32.1517	-26.3765	71.0362	100.0000	
   872	-6.8634	-6.1208	-8.7876	-6.0631	-32.1517	-26.3765	71.0570	100.0000	
   873	-6.7400	-6.0591	-8.6362	-5.9895	-32.1517	-26.3765	71.0811	100.0000	
   874	-6.6325	-6.0116	-8.4975	-5.9421	-32.1517	-26.3765	71.1969	100.0000	
   875	-6.5279	-5.9698	-8.3669	-5.8879	-32.1517	-26.3765	71.2149	100.0000	
   876	-6.4306	-5.9302	-8.2415	-5.8491	-32.1517	-26.3765	71.3251	100.0000	
   877	-6.3482	-5.8989	-8.1316	-5.8131	-32.1517	-26.3765	71.3973	100.0000	
   878	-6.2600	-5.8676	-8.0126	-5.7797	-32.1517	-26.3765	71.4981	100.0000	
   879	-6.1637	-5.8338	-7.8869	-5.7346	-32.1517	-26.3765	71.5381	100.0000	
   880	-6.0331	-5.7843	-7.7190	-5.6708	-32.1517	-26.3765	71.5877	100.0000	
   881	-5.8966	-5.7218	-7.5646	-5.5976	-32.1517	-26.3765	71.5854	100.0000	
   882	-5.8116	-5.6798	-7.4694	-5.5518	-32.1517	-26.3765	71.5982	100.0000	
   883	-5.7843	-5.6725	-7.4330	-5.5572	-32.1517	-26.3765	71.7157	100.0000	
   884	-5.7725	-5.6829	-7.4156	-5.5737	-32.1517	-26.3765	71.7814	100.0000	
   885	-5.7822	-5.7034	-7.4265	-5.5928	-32.1517	-26.3765	71.7749	100.0000	
   886	-5.8094	-5.7326	-7.4541	-5.6251	-32.1517	-26.3765	71.7995	100.0000	
   887	-5.8064	-5.7487	-7.4445	-5.6394	-32.1517	-26.3765	71.8181	100.0000	
   888	-5.7901	-5.7498	-7.4218	-5.6392	-32.1517	-26.3765	71.8362	100.0000	
   889	-5.7687	-5.7424	-7.4018	-5.6215	-32.1517	-26.3765	71.7661	100.0000	
   890	-5.7520	-5.7368	-7.3801	-5.6171	-32.1517	-26.3765	71.7929	100.0000	
   891	-5.7266	-5.7281	-7.3513	-5.5961	-32.1517	-26.3765	71.7270	100.0000	
   892	-5.6869	-5.7102	-7.3076	-5.5715	-32.1517	-26.3765	71.6991	100.0000	
   893	-5.6451	-5.6896	-7.2597	-5.5381	-32.1517	-26.3765	71.6386	100.0000	
   894	-5.5994	-5.6575	-7.2000	-5.5020	-32.1517	-26.3765	71.6579	100.0000	
   895	-5.5456	-5.6215	-7.1295	-5.4589	-32.1517	-26.3765	71.6671	100.0000	
   896	-5.4949	-5.5836	-7.0678	-5.4190	-32.1517	-26.3765	71.6881	100.0000	
   897	-5.4536	-5.5608	-7.0154	-5.3924	-32.1517	-26.3765	71.7017	100.0000	
   898	-5.4016	-5.5336	-6.9510	-5.3496	-32.1517	-26.3765	71.6437	100.0000	
   899	-5.3492	-5.4985	-6.8877	-5.3026	-32.1517	-26.3765	71.6028	100.0000	
   900	-5.3236	-5.4755	-6.8525	-5.2775	-32.1517	-26.3765	71.6183	100.0000	
   901	-5.3092	-5.4636	-6.8265	-5.2619	-32.1517	-26.3765	71.6328	100.0000	
   902	-5.2740	-5.4434	-6.7679	-5.2337	-32.1517	-26.3765	71.6604	100.0000	
   903	-5.2108	-5.4039	-6.6810	-5.1836	-32.1517	-26.3765	71.6718	100.0000	
   904	-5.1362	-5.3609	-6.5829	-5.1287	-32.1517	-26.3765	71.6752	100.0000	
   905	-5.0636	-5.3165	-6.4940	-5.0748	-32.1517	-26.3765	71.6684	100.0000	
   906	-5.0240	-5.2884	-6.4505	-5.0431	-32.1517	-26.3765	71.6564	100.0000	
   907	-5.0049	-5.2761	-6.4176	-5.0255	-32.1517	-26.3765	71.6688	100.0000	
   908	-4.9831	-5.2620	-6.3884	-5.0078	-32.1517	-26.3765	71.6704	100.0000	
   909	-4.9693	-5.2608	-6.3611	-5.0023	-32.1517	-26.3765	71.6906	100.0000	
   910	-4.9380	-5.2509	-6.3124	-4.9852	-32.1517	-26.3765	71.7071	100.0000	
   911	-4.8835	-5.2260	-6.2367	-4.9484	-32.1517	-26.3765	71.7053	100.0000	
   912	-4.8377	-5.1939	-6.1770	-4.9110	-32.1517	-26.3765	71.7161	100.0000	
   913	-4.7820	-5.1591	-6.1007	-4.8642	-32.1517	-26.3765	71.7073	100.0000	
   914	-4.7097	-5.1099	-6.0112	-4.8100	-32.1517	-26.3765	71.7300	100.0000	
   915	-4.6354	-5.0696	-5.9210	-4.7650	-32.1517	-26.3765	71.7534	100.0000	
   916	-4.5586	-5.0342	-5.8317	-4.7254	-32.1517	-26.3765	71.7714	100.0000	
   917	-4.4990	-4.9995	-5.7693	-4.6851	-32.1517	-26.3765	71.7446	100.0000	
   918	-4.4707	-4.9748	-5.7360	-4.6600	-32.1517	-26.3765	71.7547	100.0000	
   919	-4.4472	-4.9532	-5.7021	-4.6357	-32.1517	-26.3765	71.7688	100.0000	
   920	-4.4210	-4.9311	-5.6632	-4.6093	-32.1517	-26.3765	71.7813	100.0000	
   921	-4.3694	-4.8991	-5.5879	-4.5679	-32.1517	-26.3765	71.8005	100.0000	
   922	-4.3027	-4.8546	-5.5052	-4.5145	-32.1517	-26.3765	71.7940	100.0000	
   923	-4.2506	-4.8159	-5.4391	-4.4742	-32.1517	-26.3765	71.8267	100.0000	
   924	-4.2003	-4.7834	-5.3801	-4.4385	-32.1517	-26.3765	71.8331	100.0000	
   925	-4.1574	-4.7557	-5.3230	-4.4052	-32.1517	-26.3765	71.8433	100.0000	
   926	-4.1049	-4.7192	-5.2617	-4.3620	-32.1517	-26.3765	71.8279	100.0000	
   927	-4.0410	-4.6792	-5.1861	-4.3156	-32.1517	-26.3765	71.8244	100.0000	
   928	-4.0075	-4.6652	-5.1555	-4.3067	-32.1517	-26.3765	71.8471	100.0000	
   929	-3.9915	-4.6833	-5.1393	-4.3228	-32.1517	-26.3765	71.8463	100.0000	
   930	-3.9603	-4.6876	-5.1045	-4.3244	-32.1517	-26.3765	71.8497	100.0000	
   931	-3.9199	-4.6809	-5.0597	-4.3136	-32.1517	-26.3765	71.8448	100.0000	
   932	-3.8831	-4.6791	-5.0206	-4.3148	-32.1517	-26.3765	71.8785	100.0000	
   933	-3.8443	-4.6875	-4.9831	-4.3232	-32.1517	-26.3765	71.8850	100.0000	
   934	-3.8082	-4.6964	-4.9494	-4.3340	-32.1517	-26.3765	71.8999	100.0000	
   935	-3.7631	-4.6982	-4.9035	-4.3344	-32.1517	-26.3765	71.9047	100.0000	
   936	-3.7200	-4.7000	-4.8633	-4.3386	-32.1517	-26.3765	71.9195	100.0000	
   937	-3.6763	-4.7040	-4.8280	-4.3436	-32.1517	-26.3765	71.9086	100.0000	
   938	-3.6406	-4.7093	-4.7870	-4.3436	-32.1517	-26.3765	71.9031	100.0000	
   939	-3.6008	-4.7120	-4.7471	-4.3432	-32.1517	-26.3765	71.8939	100.0000	
   940	-3.5822	-4.7309	-4.7531	-4.3724	-32.1517	-26.3765	71.8882	100.0000	
   941	-3.6242	-4.8109	-4.8226	-4.4715	-32.1517	-26.3765	71.9388	100.0000	
   942	-3.6743	-4.9077	-4.8975	-4.5802	-32.1517	-26.3765	71.9585	100.0000	
   943	-3.7057	-4.9860	-4.9459	-4.6658	-32.1517	-26.3765	71.9721	100.0000	
   944	-3.7275	-5.0466	-4.9848	-4.7343	-32.1517	-26.3765	71.9850	100.0000	
   945	-3.7411	-5.1005	-5.0107	-4.7909	-32.1517	-26.3765	71.9794	100.0000	
   946	-3.7491	-5.1468	-5.0284	-4.8421	-32.1517	-26.3765	71.9942	100.0000	
   947	-3.7567	-5.1892	-5.0519	-4.8887	-32.1517	-26.3765	71.9834	100.0000	
   948	-3.7697	-5.2324	-5.0830	-4.9389	-32.1517	-26.3765	71.9818	100.0000	
   949	-3.7926	-5.2884	-5.1266	-5.0032	-32.1517	-26.3765	71.9827	100.0000	
   950	-3.8224	-5.3515	-5.1756	-5.0771	-32.1517	-26.3765	72.0052	100.0000	
   951	-3.8490	-5.4138	-5.2219	-5.1481	-32.1517	-26.3765	72.0131	100.0000	
   952	-3.8763	-5.4792	-5.2631	-5.2241	-32.1517	-26.3765	72.0540	100.0000	
   953	-3.8863	-5.5385	-5.2996	-5.2947	-32.1517	-26.3765	72.0585	100.0000	
   954	-3.8967	-5.5942	-5.3316	-5.3600	-32.1517	-26.3765	72.0668	100.0000	
   955	-3.9007	-5.6406	-5.3437	-5.4100	-32.1517	-26.3765	72.0804	100.0000	
   956	-3.8729	-5.6458	-5.3150	-5.4120	-32.1517	-26.3765	72.0709	100.0000	
   957	-3.8348	-5.6328	-5.2762	-5.3978	-32.1517	-26.3765	72.0686	100.0000	
   958	-3.7951	-5.6149	-5.2359	-5.3790	-32.1517	-26.3765	72.0663	100.0000	
   959	-3.7602	-5.6001	-5.1996	-5.3652	-32.1517	-26.3765	72.0788	100.0000	
   960	-3.7287	-5.5875	-5.1708	-5.3550	-32.1517	-26.3765	72.0869	100.0000	
   961	-3.7013	-5.5789	-5.1490	-5.3494	-32.1517	-26.3765	72.0896	100.0000	
   962	-3.6831	-5.5813	-5.1371	-5.3562	-32.1517	-26.3765	72.1009	100.0000	
   963	-3.6652	-5.5891	-5.1211	-5.3652	-32.1517	-26.3765	72.1090	100.0000	
   964	-3.6374	-5.5840	-5.0933	-5.3604	-32.1517	-26.3765	72.1152	100.0000	
   965	-3.6089	-5.5772	-5.0684	-5.3540	-32.1517	-26.3765	72.1090	100.0000	
   966	-3.5803	-5.5703	-5.0404	-5.3468	-32.1517	-26.3765	72.1080	100.0000	
   967	-3.5514	-5.5581	-5.0134	-5.3354	-32.1517	-26.3765	72.1080	100.0000	
   968	-3.5241	-5.5495	-4.9865	-5.3265	-32.1517	-26.3765	72.1071	100.0000	
   969	-3.4960	-5.5404	-4.9615	-5.3175	-32.1517	-26.3765	72.1004	100.0000	
   970	-3.4700	-5.5313	-4.9378	-5.3094	-32.1517	-26.3765	72.1009	100.0000	
   971	-3.4461	-5.5262	-4.9167	-5.3055	-32.1517	-26.3765	72.1018	100.0000	
   972	-3.4264	-5.5250	-4.9002	-5.3057	-32.1517	-26.3765	72.1032	100.0000	
   973	-3.4080	-5.5248	-4.8855	-5.3071	-32.1517	-26.3765	72.1050	100.0000	
   974	-3.3856	-5.5219	-4.8646	-5.3044	-32.1517	-26.3765	72.1050	100.0000	
   975	-3.3638	-5.5194	-4.8461	-5.3033	-32.1517	-26.3765	72.1064	100.0000	
   976	-3.3434	-5.5179	-4.8295	-5.3022	-32.1517	-26.3765	72.1006	100.0000	
   977	-3.3202	-5.5132	-4.8072	-5.2974	-32.1517	-26.3765	72.1001	100.0000	
   978	-3.2976	-5.5063	-4.7866	-5.2914	-32.1517	-26.3765	72.1006	100.0000	
   979	-3.2736	-5.4999	-4.7641	-5.2841	-32.1517	-26.3765	72.0929	100.0000	
   980	-3.2476	-5.4907	-4.7390	-5.2739	-32.1517	-26.3765	72.0848	100.0000	
   981	-3.2194	-5.4803	-4.7127	-5.2629	-32.1517	-26.3765	72.0772	100.0000	
   982	-3.1913	-5.4699	-4.6856	-5.2515	-32.1517	-26.3765	72.0691	100.0000	
   983	-3.1632	-5.4595	-4.6593	-5.2405	-32.1517	-26.3765	72.0614	100.0000	
   984	-3.1378	-5.4495	-4.6348	-5.2307	-32.1517	-26.3765	72.0610	100.0000	
   985	-3.1124	-5.4408	-4.6122	-5.2209	-32.1517	-26.3765	72.0466	100.0000	
   986	-3.0876	-5.4312	-4.5884	-5.2116	-32.1517	-26.3765	72.0461	100.0000	
   987	-3.0615	-5.4221	-4.5639	-5.2018	-32.1517	-26.3765	72.0385	100.0000	
   988	-3.0354	-5.4130	-4.5382	-5.1925	-32.1517	-26.3765	72.0376	100.0000	
   989	-3.0094	-5.4039	-4.5150	-5.1823	-32.1517	-26.3765	72.0232	100.0000	
   990	-2.9872	-5.3948	-4.4936	-5.1733	-32.1517	-26.3765	72.0228	100.0000	
   991	-2.9578	-5.3848	-4.4574	-5.1607	-32.1517	-26.3765	72.0315	100.0000	
   992	-2.9112	-5.3598	-4.4047	-5.1291	-32.1517	-26.3765	72.0101	100.0000	
   993	-2.8645	-5.3335	-4.3476	-5.0946	-32.1517	-26.3765	71.9930	100.0000	
   994	-2.8110	-5.3028	-4.2754	-5.0553	-32.1517	-26.3765	71.9996	100.0000	
   995	-2.7432	-5.2629	-4.1854	-5.0031	-32.1517	-26.3765	71.9958	100.0000	
   996	-2.6623	-5.2119	-4.0800	-4.9386	-32.1517	-26.3765	71.9899	100.0000	
   997	-2.5731	-5.1544	-3.9669	-4.8692	-32.1517	-26.3765	71.9910	100.0000	
   998	-2.4793	-5.0950	-3.8501	-4.7986	-32.1517	-26.3765	71.9928	100.0000	
   999	-2.3823	-5.0362	-3.7327	-4.7288	-32.1517	-26.3765	71.9890	100.0000	
  1000	-2.2879	-4.9791	-3.6211	-4.6639	-32.1517	-26.3765	71.9948	100.0000	
  1001	-2.1998	-4.9274	-3.5203	-4.6048	-32.1517	-26.3765	71.9892	100.0000	
  1002	-2.1171	-4.8791	-3.4259	-4.5511	-32.1517	-26.3765	71.9921	100.0000	
  1003	-2.0364	-4.8321	-3.3358	-4.4977	-32.1517	-26.3765	71.9817	100.0000	
  1004	-1.9649	-4.7847	-3.2612	-4.4471	-32.1517	-26.3765	71.9688	100.0000	
  1005	-1.9143	-4.7468	-3.2231	-4.4032	-32.1517	-26.3765	71.8843	100.0000	
  1006	-1.9031	-4.7241	-3.2256	-4.3831	-32.1517	-26.3765	71.8481	100.0000	
  1007	-1.9343	-4.7314	-3.2674	-4.3969	-32.1517	-26.3765	71.8493	100.0000	
  1008	-1.9785	-4.7483	-3.3289	-4.4209	-32.1517	-26.3765	71.8330	100.0000	
  1009	-2.0289	-4.7706	-3.4035	-4.4498	-32.1517	-26.3765	71.7923	100.0000	
  1010	-2.0910	-4.8016	-3.4930	-4.4931	-32.1517	-26.3765	71.7767	100.0000	
  1011	-2.1735	-4.8472	-3.6080	-4.5542	-32.1517	-26.3765	71.7655	100.0000	
  1012	-2.2853	-4.9117	-3.7511	-4.6333	-32.1517	-26.3765	71.7554	100.0000	
  1013	-2.4087	-4.9837	-3.8967	-4.7153	-32.1517	-26.3765	71.7469	100.0000	
  1014	-2.5253	-5.0512	-4.0273	-4.7900	-32.1517	-26.3765	71.7471	100.0000	
  1015	-2.6140	-5.1021	-4.1185	-4.8417	-32.1517	-26.3765	71.7455	100.0000	
  1016	-2.6754	-5.1327	-4.1826	-4.8699	-32.1517	-26.3765	71.7204	100.0000	
  1017	-2.7256	-5.1523	-4.2393	-4.8860	-32.1517	-26.3765	71.6750	100.0000	
  1018	-2.7765	-5.1710	-4.2968	-4.9063	-32.1517	-26.3765	71.6595	100.0000	
  1019	-2.8371	-5.1998	-4.3618	-4.9386	-32.1517	-26.3765	71.6652	100.0000	
  1020	-2.8959	-5.2314	-4.4100	-4.9769	-32.1517	-26.3765	71.7439	100.0000	
  1021	-2.9271	-5.2489	-4.4380	-4.9950	-32.1517	-26.3765	71.7583	100.0000	
  1022	-2.9490	-5.2554	-4.4654	-5.0031	-32.1517	-26.3765	71.7478	100.0000	
  1023	-2.9768	-5.2604	-4.4960	-5.0120	-32.1517	-26.3765	71.7586	100.0000	
  1024	-3.0221	-5.2729	-4.5473	-5.0307	-32.1517	-26.3765	71.7724	100.0000	
  1025	-3.0844	-5.2964	-4.6151	-5.0588	-32.1517	-26.3765	71.7791	100.0000	
  1026	-3.1400	-5.3181	-4.6728	-5.0816	-32.1517	-26.3765	71.7753	100.0000	
  1027	-3.1734	-5.3294	-4.7095	-5.0920	-32.1517	-26.3765	71.7562	100.0000	
  1028	-3.2004	-5.3327	-4.7424	-5.0988	-32.1517	-26.3765	71.7539	100.0000	
  1029	-3.2449	-5.3420	-4.7979	-5.1153	-32.1517	-26.3765	71.7562	100.0000	
  1030	-3.3139	-5.3699	-4.8783	-5.1504	-32.1517	-26.3765	71.7600	100.0000	
  1031	-3.3854	-5.4058	-4.9500	-5.1919	-32.1517	-26.3765	71.7932	100.0000	
  1032	-3.4346	-5.4285	-4.9918	-5.2153	-32.1517	-26.3765	71.8202	100.0000	
  1033	-3.4739	-5.4410	-5.0267	-5.2270	-32.1517	-26.3765	71.8265	100.0000	
  1034	-3.5019	-5.4487	-5.0516	-5.2334	-32.1517	-26.3765	71.8256	100.0000	
  1035	-3.5276	-5.4525	-5.0825	-5.2377	-32.1517	-26.3765	71.8075	100.0000	
  1036	-3.5719	-5.4708	-5.1333	-5.2572	-32.1517	-26.3765	71.7911	100.0000	
  1037	-3.6117	-5.4900	-5.1760	-5.2764	-32.1517	-26.3765	71.7796	100.0000	
  1038	-3.6460	-5.5057	-5.2168	-5.2919	-32.1517	-26.3765	71.7547	100.0000	
  1039	-3.6762	-5.5188	-5.2512	-5.3045	-32.1517	-26.3765	71.7358	100.0000	
  1040	-3.7023	-5.5279	-5.2824	-5.3137	-32.1517	-26.3765	71.7173	100.0000	
  1041	-3.7297	-5.5379	-5.3154	-5.3242	-32.1517	-26.3765	71.6992	100.0000	
  1042	-3.7571	-5.5466	-5.3467	-5.3348	-32.1517	-26.3765	71.6954	100.0000	
  1043	-3.7879	-5.5587	-5.3855	-5.3490	-32.1517	-26.3765	71.6793	100.0000	
  1044	-3.8250	-5.5762	-5.4295	-5.3678	-32.1517	-26.3765	71.6627	100.0000	
  1045	-3.8560	-5.5924	-5.4628	-5.3833	-32.1517	-26.3765	71.6506	100.0000	
  1046	-3.8780	-5.5989	-5.4883	-5.3889	-32.1517	-26.3765	71.6315	100.0000	
  1047	-3.9062	-5.6106	-5.5197	-5.4019	-32.1517	-26.3765	71.6274	100.0000	
  1048	-3.9290	-5.6202	-5.5435	-5.4113	-32.1517	-26.3765	71.6216	100.0000	
  1049	-3.9537	-5.6285	-5.5722	-5.4202	-32.1517	-26.3765	71.6103	100.0000	
  1050	-3.9766	-5.6394	-5.5962	-5.4320	-32.1517	-26.3765	71.6121	100.0000	
  1051	-3.9860	-5.6429	-5.6031	-5.4353	-32.1517	-26.3765	71.6185	100.0000	
  1052	-3.9824	-5.6380	-5.5979	-5.4295	-32.1517	-26.3765	71.6172	100.0000	
  1053	-3.9802	-5.6326	-5.5963	-5.4237	-32.1517	-26.3765	71.6099	100.0000	
  1054	-3.9807	-5.6304	-5.5962	-5.4212	-32.1517	-26.3765	71.6094	100.0000	
  1055	-3.9806	-5.6291	-5.5960	-5.4186	-32.1517	-26.3765	71.6017	100.0000	
  1056	-3.9832	-5.6281	-5.5954	-5.4182	-32.1517	-26.3765	71.6151	100.0000	
  1057	-3.9872	-5.6294	-5.6010	-5.4194	-32.1517	-26.3765	71.6086	100.0000	
  1058	-3.9987	-5.6356	-5.6123	-5.4256	-32.1517	-26.3765	71.6090	100.0000	
  1059	-3.9987	-5.6356	-5.6029	-5.4219	-32.1517	-26.3765	71.6178	100.0000	
  1060	-3.9774	-5.6193	-5.5754	-5.4017	-32.1517	-26.3765	71.6124	100.0000	
  1061	-3.9650	-5.6087	-5.5606	-5.3898	-32.1517	-26.3765	71.6102	100.0000	
  1062	-3.9621	-5.6029	-5.5611	-5.3864	-32.1517	-26.3765	71.6124	100.0000	
  1063	-3.9777	-5.6130	-5.5857	-5.4000	-32.1517	-26.3765	71.6041	100.0000	
  1064	-3.9988	-5.6266	-5.6130	-5.4151	-32.1517	-26.3765	71.5940	100.0000	
  1065	-4.0185	-5.6394	-5.6325	-5.4254	-32.1517	-26.3765	71.5795	100.0000	
  1066	-4.0306	-5.6433	-5.6480	-5.4269	-32.1517	-26.3765	71.5516	100.0000	
  1067	-4.0573	-5.6528	-5.6805	-5.4382	-32.1517	-26.3765	71.5412	100.0000	
  1068	-4.0844	-5.6677	-5.7059	-5.4547	-32.1517	-26.3765	71.5568	100.0000	
  1069	-4.1021	-5.6792	-5.7250	-5.4658	-32.1517	-26.3765	71.5507	100.0000	
  1070	-4.1129	-5.6862	-5.7352	-5.4736	-32.1517	-26.3765	71.5585	100.0000	
  1071	-4.1246	-5.6950	-5.7511	-5.4839	-32.1517	-26.3765	71.5542	100.0000	
  1072	-4.1511	-5.7121	-5.7724	-5.5133	-32.1517	-26.3765	71.6530	100.0000	
  1073	-4.1697	-5.7280	-5.7830	-5.5262	-32.1517	-26.3765	71.6637	100.0000	
  1074	-4.1505	-5.7233	-5.7523	-5.5148	-32.1517	-26.3765	71.6624	100.0000	
  1075	-4.1348	-5.7132	-5.7351	-5.5037	-32.1517	-26.3765	71.6607	100.0000	
  1076	-4.1327	-5.7106	-5.7394	-5.5041	-32.1517	-26.3765	71.6575	100.0000	
  1077	-4.1530	-5.7224	-5.7710	-5.5209	-32.1517	-26.3765	71.6509	100.0000	
  1078	-4.1903	-5.7439	-5.8172	-5.5459	-32.1517	-26.3765	71.6433	100.0000	
  1079	-4.2189	-5.7624	-5.8445	-5.5623	-32.1517	-26.3765	71.6360	100.0000	
  1080	-4.2321	-5.7644	-5.8593	-5.5646	-32.1517	-26.3765	71.6300	100.0000	
  1081	-4.2527	-5.7700	-5.8831	-5.5727	-32.1517	-26.3765	71.6330	100.0000	
  1082	-4.2702	-5.7774	-5.8989	-5.5805	-32.1517	-26.3765	71.6403	100.0000	
  1083	-4.2815	-5.7809	-5.9119	-5.5829	-32.1517	-26.3765	71.6264	100.0000	
  1084	-4.2994	-5.7847	-5.9304	-5.5864	-32.1517	-26.3765	71.6199	100.0000	
  1085	-4.3287	-5.7934	-5.9647	-5.5953	-32.1517	-26.3765	71.6012	100.0000	
  1086	-4.3727	-5.8063	-6.0133	-5.6098	-32.1517	-26.3765	71.5906	100.0000	
  1087	-4.4199	-5.8187	-6.0697	-5.6100	-32.1517	-26.3765	71.4743	100.0000	
  1088	-4.4603	-5.8255	-6.1204	-5.6187	-32.1517	-26.3765	71.4445	100.0000	
  1089	-4.5344	-5.8501	-6.2149	-5.6520	-32.1517	-26.3765	71.4236	100.0000	
  1090	-4.6243	-5.8876	-6.3263	-5.6938	-32.1517	-26.3765	71.3733	100.0000	
  1091	-4.7242	-5.9263	-6.4409	-5.7365	-32.1517	-26.3765	71.3417	100.0000	
  1092	-4.8139	-5.9611	-6.5355	-5.7710	-32.1517	-26.3765	71.3181	100.0000	
  1093	-4.8860	-5.9845	-6.6028	-5.8025	-32.1517	-26.3765	71.3800	100.0000	
  1094	-4.9575	-6.0087	-6.6781	-5.8318	-32.1517	-26.3765	71.3934	100.0000	
  1095	-5.0314	-6.0410	-6.7543	-5.8678	-32.1517	-26.3765	71.4059	100.0000	
  1096	-5.1022	-6.0751	-6.8275	-5.9042	-32.1517	-26.3765	71.4106	100.0000	
  1097	-5.1691	-6.1119	-6.8988	-5.9406	-32.1517	-26.3765	71.3931	100.0000	
  1098	-5.2320	-6.1461	-6.9627	-5.9759	-32.1517	-26.3765	71.3964	100.0000	
  1099	-5.2834	-6.1741	-7.0103	-6.0042	-32.1517	-26.3765	71.4116	100.0000	
  1100	-5.3128	-6.1944	-7.0322	-6.0219	-32.1517	-26.3765	71.4234	100.0000	
  1101	-5.3206	-6.2046	-7.0264	-6.0279	-32.1517	-26.3765	71.4456	100.0000	
  1102	-5.3034	-6.2025	-6.9891	-6.0291	-32.1517	-26.3765	71.5391	100.0000	
  1103	-5.2746	-6.1916	-6.9452	-6.0116	-32.1517	-26.3765	71.5508	100.0000	
  1104	-5.2389	-6.1750	-6.8948	-5.9887	-32.1517	-26.3765	71.5622	100.0000	
  1105	-5.2074	-6.1624	-6.8474	-5.9738	-32.1517	-26.3765	71.6039	100.0000	
  1106	-5.1696	-6.1534	-6.7939	-5.9597	-32.1517	-26.3765	71.6301	100.0000	
  1107	-5.1255	-6.1392	-6.7383	-5.9406	-32.1517	-26.3765	71.6434	100.0000	
  1108	-5.0746	-6.1192	-6.6825	-5.9082	-32.1517	-26.3765	71.5837	100.0000	
  1109	-5.0221	-6.0943	-6.6244	-5.8779	-32.1517	-26.3765	71.5699	100.0000	
  1110	-4.9679	-6.0644	-6.5641	-5.8426	-32.1517	-26.3765	71.5556	100.0000	
  1111	-4.9075	-6.0280	-6.4954	-5.7994	-32.1517	-26.3765	71.5399	100.0000	
  1112	-4.8506	-5.9835	-6.4321	-5.7537	-32.1517	-26.3765	71.5489	100.0000	
  1113	-4.8085	-5.9460	-6.3900	-5.7145	-32.1517	-26.3765	71.5316	100.0000	
  1114	-4.7893	-5.9194	-6.3707	-5.6984	-32.1517	-26.3765	71.5931	100.0000	
  1115	-4.7929	-5.9024	-6.3744	-5.6875	-32.1517	-26.3765	71.6244	100.0000	
  1116	-4.8038	-5.8875	-6.3903	-5.6773	-32.1517	-26.3765	71.6284	100.0000	
  1117	-4.8235	-5.8770	-6.4215	-5.6648	-32.1517	-26.3765	71.5680	100.0000	
  1118	-4.8635	-5.8784	-6.4723	-5.6747	-32.1517	-26.3765	71.5772	100.0000	
  1119	-4.9120	-5.8890	-6.5352	-5.6925	-32.1517	-26.3765	71.5662	100.0000	
  1120	-4.9672	-5.9041	-6.6057	-5.7139	-32.1517	-26.3765	71.5483	100.0000	
  1121	-5.0236	-5.9173	-6.6755	-5.7349	-32.1517	-26.3765	71.5447	100.0000	
  1122	-5.0916	-5.9367	-6.7586	-5.7620	-32.1517	-26.3765	71.5346	100.0000	
  1123	-5.1670	-5.9623	-6.8449	-5.7924	-32.1517	-26.3765	71.5220	100.0000	
  1124	-5.2459	-5.9900	-6.9338	-5.8257	-32.1517	-26.3765	71.5167	100.0000	
  1125	-5.3346	-6.0280	-7.0344	-5.8702	-32.1517	-26.3765	71.5130	100.0000	
  1126	-5.4329	-6.0747	-7.1442	-5.9255	-32.1517	-26.3765	71.5248	100.0000	
  1127	-5.5269	-6.1264	-7.2480	-5.9816	-32.1517	-26.3765	71.5196	100.0000	
  1128	-5.6055	-6.1707	-7.3304	-6.0301	-32.1517	-26.3765	71.5332	100.0000	
  1129	-5.6632	-6.2054	-7.3969	-6.0574	-32.1517	-26.3765	71.4558	100.0000	
  1130	-5.7073	-6.2326	-7.4487	-6.0836	-32.1517	-26.3765	71.4240	100.0000	
  1131	-5.7474	-6.2586	-7.4974	-6.1090	-32.1517	-26.3765	71.3924	100.0000	
  1132	-5.7876	-6.2845	-7.5485	-6.1360	-32.1517	-26.3765	71.3627	100.0000	
  1133	-5.8230	-6.3087	-7.5954	-6.1614	-32.1517	-26.3765	71.3328	100.0000	
  1134	-5.8611	-6.3320	-7.6441	-6.1881	-32.1517	-26.3765	71.3183	100.0000	
  1135	-5.8971	-6.3553	-7.6898	-6.2152	-32.1517	-26.3765	71.3106	100.0000	
  1136	-5.9352	-6.3799	-7.7410	-6.2435	-32.1517	-26.3765	71.2900	100.0000	
  1137	-5.9687	-6.4041	-7.7837	-6.2710	-32.1517	-26.3765	71.2818	100.0000	
  1138	-5.9934	-6.4226	-7.8144	-6.2932	-32.1517	-26.3765	71.2869	100.0000	
  1139	-6.0074	-6.4278	-7.8320	-6.3010	-32.1517	-26.3765	71.2899	100.0000	
  1140	-6.0140	-6.4282	-7.8382	-6.3026	-32.1517	-26.3765	71.2978	100.0000	
  1141	-6.0036	-6.4176	-7.8252	-6.2894	-32.1517	-26.3765	71.2878	100.0000	
  1142	-5.9826	-6.3950	-7.7957	-6.2667	-32.1517	-26.3765	71.3124	100.0000	
  1143	-5.9563	-6.3703	-7.7611	-6.2407	-32.1517	-26.3765	71.3292	100.0000	
  1144	-5.9306	-6.3446	-7.7295	-6.2143	-32.1517	-26.3765	71.3398	100.0000	
  1145	-5.9176	-6.3233	-7.7104	-6.1911	-32.1517	-26.3765	71.3429	100.0000	
  1146	-5.9007	-6.3034	-7.6846	-6.1684	-32.1517	-26.3765	71.3518	100.0000	
  1147	-5.8811	-6.2817	-7.6561	-6.1415	-32.1517	-26.3765	71.3451	100.0000	
  1148	-5.8573	-6.2547	-7.6208	-6.1139	-32.1517	-26.3765	71.3754	100.0000	
  1149	-5.8293	-6.2251	-7.5817	-6.0838	-32.1517	-26.3765	71.4057	100.0000	
  1150	-5.8021	-6.1959	-7.5450	-6.0529	-32.1517	-26.3765	71.4215	100.0000	
  1151	-5.7743	-6.1676	-7.5076	-6.0215	-32.1517	-26.3765	71.4296	100.0000	
  1152	-5.7435	-6.1335	-7.4648	-5.9806	-32.1517	-26.3765	71.4205	100.0000	
  1153	-5.7105	-6.0955	-7.4245	-5.9401	-32.1517	-26.3765	71.4220	100.0000	
  1154	-5.6836	-6.0716	-7.3898	-5.9129	-32.1517	-26.3765	71.4234	100.0000	
  1155	-5.6540	-6.0474	-7.3545	-5.8852	-32.1517	-26.3765	71.4182	100.0000	
  1156	-5.6286	-6.0271	-7.3233	-5.8651	-32.1517	-26.3765	71.4366	100.0000	
  1157	-5.6096	-6.0161	-7.3048	-5.8519	-32.1517	-26.3765	71.4205	100.0000	
  1158	-5.5935	-6.0083	-7.2877	-5.8421	-32.1517	-26.3765	71.4114	100.0000	
  1159	-5.5773	-6.0004	-7.2687	-5.8322	-32.1517	-26.3765	71.4088	100.0000	
  1160	-5.5477	-5.9877	-7.2342	-5.8171	-32.1517	-26.3765	71.4119	100.0000	
  1161	-5.5172	-5.9693	-7.2011	-5.7958	-32.1517	-26.3765	71.4011	100.0000	
  1162	-5.4879	-5.9491	-7.1669	-5.7761	-32.1517	-26.3765	71.4198	100.0000	
  1163	-5.4613	-5.9319	-7.1362	-5.7551	-32.1517	-26.3765	71.4081	100.0000	
  1164	-5.4368	-5.9161	-7.1087	-5.7349	-32.1517	-26.3765	71.3895	100.0000	
  1165	-5.4117	-5.8998	-7.0788	-5.7156	-32.1517	-26.3765	71.3851	100.0000	
  1166	-5.3852	-5.8840	-7.0502	-5.6971	-32.1517	-26.3765	71.3748	100.0000	
  1167	-5.3624	-5.8744	-7.0258	-5.6898	-32.1517	-26.3765	71.3960	100.0000	
  1168	-5.3431	-5.8697	-7.0041	-5.6842	-32.1517	-26.3765	71.4012	100.0000	
  1169	-5.3244	-5.8628	-6.9816	-5.6769	-32.1517	-26.3765	71.4133	100.0000	
  1170	-5.2959	-5.8573	-6.9574	-5.6721	-32.1517	-26.3765	71.4072	100.0000	
  1171	-5.2828	-5.8579	-6.9491	-5.6873	-32.1517	-26.3765	71.4884	100.0000	
  1172	-5.2714	-5.8750	-6.9436	-5.7078	-32.1517	-26.3765	71.4997	100.0000	
  1173	-5.2625	-5.8911	-6.9425	-5.7325	-32.1517	-26.3765	71.5360	100.0000	
  1174	-5.2606	-5.9144	-6.9474	-5.7646	-32.1517	-26.3765	71.5799	100.0000	
  1175	-5.2584	-5.9336	-6.9509	-5.7934	-32.1517	-26.3765	71.6306	100.0000	
  1176	-5.2454	-5.9472	-6.9376	-5.8065	-32.1517	-26.3765	71.6375	100.0000	
  1177	-5.2239	-5.9487	-6.9190	-5.8125	-32.1517	-26.3765	71.6618	100.0000	
  1178	-5.2085	-5.9542	-6.9085	-5.8214	-32.1517	-26.3765	71.6721	100.0000	
  1179	-5.1945	-5.9607	-6.8973	-5.8299	-32.1517	-26.3765	71.6812	100.0000	
  1180	-5.1823	-5.9657	-6.8819	-5.8392	-32.1517	-26.3765	71.7247	100.0000	
  1181	-5.1615	-5.9677	-6.8570	-5.8424	-32.1517	-26.3765	71.7519	100.0000	
  1182	-5.1371	-5.9662	-6.8337	-5.8418	-32.1517	-26.3765	71.7592	100.0000	
  1183	-5.1170	-5.9686	-6.8130	-5.8454	-32.1517	-26.3765	71.7735	100.0000	
  1184	-5.0914	-5.9689	-6.7874	-5.8469	-32.1517	-26.3765	71.7877	100.0000	
  1185	-5.0785	-5.9708	-6.7704	-5.8492	-32.1517	-26.3765	71.8076	100.0000	
  1186	-5.0563	-5.9719	-6.7420	-5.8357	-32.1517	-26.3765	71.7393	100.0000	
  1187	-5.0288	-5.9503	-6.7038	-5.8110	-32.1517	-26.3765	71.7540	100.0000	
  1188	-4.9986	-5.9270	-6.6634	-5.7801	-32.1517	-26.3765	71.7376	100.0000	
  1189	-4.9577	-5.8979	-6.6122	-5.7422	-32.1517	-26.3765	71.7127	100.0000	
  1190	-4.9222	-5.8737	-6.5723	-5.7092	-32.1517	-26.3765	71.6689	100.0000	
  1191	-4.9018	-5.8606	-6.5490	-5.6978	-32.1517	-26.3765	71.6891	100.0000	
  1192	-4.8873	-5.8589	-6.5303	-5.6929	-32.1517	-26.3765	71.6855	100.0000	
  1193	-4.8707	-5.8560	-6.5086	-5.6873	-32.1517	-26.3765	71.6889	100.0000	
  1194	-4.8461	-5.8491	-6.4811	-5.6780	-32.1517	-26.3765	71.6858	100.0000	
  1195	-4.8182	-5.8427	-6.4597	-5.6690	-32.1517	-26.3765	71.6505	100.0000	
  1196	-4.8164	-5.8557	-6.4584	-5.6995	-32.1517	-26.3765	71.7680	100.0000	
  1197	-4.8244	-5.8931	-6.4894	-5.7473	-32.1517	-26.3765	71.7683	100.0000	
  1198	-4.8326	-5.9435	-6.5082	-5.8089	-32.1517	-26.3765	71.8236	100.0000	
  1199	-4.8317	-5.9739	-6.5137	-5.8511	-32.1517	-26.3765	71.8908	100.0000	
  1200	-4.8209	-6.0030	-6.5170	-5.8870	-32.1517	-26.3765	71.9001	100.0000	
  1201	-4.8024	-6.0336	-6.5150	-5.9254	-32.1517	-26.3765	71.9110	100.0000	
  1202	-4.7885	-6.0762	-6.5190	-5.9739	-32.1517	-26.3765	71.9073	100.0000	
  1203	-4.7653	-6.1063	-6.5072	-6.0133	-32.1517	-26.3765	71.9457	100.0000	
  1204	-4.7418	-6.1298	-6.4965	-6.0401	-32.1517	-26.3765	71.9380	100.0000	
  1205	-4.7134	-6.1489	-6.4795	-6.0641	-32.1517	-26.3765	71.9446	100.0000	
  1206	-4.6836	-6.1657	-6.4611	-6.0861	-32.1517	-26.3765	71.9513	100.0000	
  1207	-4.6509	-6.1781	-6.4393	-6.1009	-32.1517	-26.3765	71.9419	100.0000	
  1208	-4.6153	-6.1848	-6.4124	-6.1112	-32.1517	-26.3765	71.9464	100.0000	
  1209	-4.5850	-6.1936	-6.3898	-6.1232	-32.1517	-26.3765	71.9503	100.0000	
  1210	-4.5559	-6.1992	-6.3620	-6.1306	-32.1517	-26.3765	71.9654	100.0000	
  1211	-4.5071	-6.1832	-6.3179	-6.0984	-32.1517	-26.3765	71.8493	100.0000	
  1212	-4.4510	-6.1418	-6.2396	-6.0491	-32.1517	-26.3765	71.8706	100.0000	
  1213	-4.3880	-6.0831	-6.1671	-5.9805	-32.1517	-26.3765	71.8291	100.0000	
  1214	-4.3327	-6.0435	-6.1113	-5.9276	-32.1517	-26.3765	71.7403	100.0000	
  1215	-4.2863	-6.0006	-6.0522	-5.8798	-32.1517	-26.3765	71.7447	100.0000	
  1216	-4.2464	-5.9555	-5.9978	-5.8289	-32.1517	-26.3765	71.7481	100.0000	
  1217	-4.2021	-5.9023	-5.9393	-5.7706	-32.1517	-26.3765	71.7518	100.0000	
  1218	-4.1650	-5.8616	-5.8929	-5.7214	-32.1517	-26.3765	71.7198	100.0000	
  1219	-4.1228	-5.8228	-5.8408	-5.6793	-32.1517	-26.3765	71.7267	100.0000	
  1220	-4.0785	-5.7813	-5.7836	-5.6327	-32.1517	-26.3765	71.7311	100.0000	
  1221	-4.0286	-5.7335	-5.7204	-5.5786	-32.1517	-26.3765	71.7273	100.0000	
  1222	-3.9784	-5.6818	-5.6584	-5.5229	-32.1517	-26.3765	71.7322	100.0000	
  1223	-3.9352	-5.6358	-5.6034	-5.4716	-32.1517	-26.3765	71.7298	100.0000	
  1224	-3.8886	-5.5889	-5.5452	-5.4196	-32.1517	-26.3765	71.7275	100.0000	
  1225	-3.8498	-5.5523	-5.5025	-5.3812	-32.1517	-26.3765	71.7230	100.0000	
  1226	-3.8176	-5.5276	-5.4661	-5.3540	-32.1517	-26.3765	71.7186	100.0000	
  1227	-3.7823	-5.5061	-5.4260	-5.3293	-32.1517	-26.3765	71.7137	100.0000	
  1228	-3.7557	-5.4889	-5.4005	-5.3116	-32.1517	-26.3765	71.7055	100.0000	
  1229	-3.7362	-5.4802	-5.3780	-5.3044	-32.1517	-26.3765	71.7257	100.0000	
  1230	-3.7142	-5.4724	-5.3530	-5.2954	-32.1517	-26.3765	71.7303	100.0000	
  1231	-3.6867	-5.4624	-5.3253	-5.2824	-32.1517	-26.3765	71.7134	100.0000	
  1232	-3.6598	-5.4502	-5.2957	-5.2693	-32.1517	-26.3765	71.7180	100.0000	
  1233	-3.6322	-5.4375	-5.2655	-5.2558	-32.1517	-26.3765	71.7226	100.0000	
  1234	-3.6100	-5.4271	-5.2404	-5.2456	-32.1517	-26.3765	71.7350	100.0000	
  1235	-3.5895	-5.4228	-5.2212	-5.2417	-32.1517	-26.3765	71.7350	100.0000	
  1236	-3.5739	-5.4257	-5.2098	-5.2464	-32.1517	-26.3765	71.7372	100.0000	
  1237	-3.5601	-5.4361	-5.1988	-5.2574	-32.1517	-26.3765	71.7385	100.0000	
  1238	-3.5395	-5.4421	-5.1810	-5.2663	-32.1517	-26.3765	71.7548	100.0000	
  1239	-3.5196	-5.4486	-5.1649	-5.2753	-32.1517	-26.3765	71.7642	100.0000	
  1240	-3.4918	-5.4448	-5.1358	-5.2697	-32.1517	-26.3765	71.7620	100.0000	
  1241	-3.4596	-5.4304	-5.1025	-5.2555	-32.1517	-26.3765	71.7675	100.0000	
  1242	-3.4305	-5.4156	-5.0729	-5.2411	-32.1517	-26.3765	71.7734	100.0000	
  1243	-3.3927	-5.3963	-5.0300	-5.2194	-32.1517	-26.3765	71.7758	100.0000	
  1244	-3.3552	-5.3694	-4.9873	-5.1919	-32.1517	-26.3765	71.7858	100.0000	
  1245	-3.3218	-5.3466	-4.9523	-5.1680	-32.1517	-26.3765	71.7831	100.0000	
  1246	-3.2958	-5.3285	-4.9250	-5.1516	-32.1517	-26.3765	71.7964	100.0000	
  1247	-3.2722	-5.3158	-4.9009	-5.1385	-32.1517	-26.3765	71.7950	100.0000	
  1248	-3.2477	-5.3013	-4.8743	-5.1237	-32.1517	-26.3765	71.8000	100.0000	
  1249	-3.2193	-5.2842	-4.8444	-5.1044	-32.1517	-26.3765	71.7901	100.0000	
  1250	-3.1911	-5.2622	-4.8060	-5.0868	-32.1517	-26.3765	71.8502	100.0000	
  1251	-3.1670	-5.2414	-4.7772	-5.0658	-32.1517	-26.3765	71.8611	100.0000	
  1252	-3.1463	-5.2229	-4.7540	-5.0460	-32.1517	-26.3765	71.8584	100.0000	
  1253	-3.1264	-5.2075	-4.7315	-5.0279	-32.1517	-26.3765	71.8480	100.0000	
  1254	-3.1092	-5.1925	-4.7098	-5.0114	-32.1517	-26.3765	71.8517	100.0000	
  1255	-3.0888	-5.1806	-4.6870	-4.9991	-32.1517	-26.3765	71.8567	100.0000	
  1256	-3.0666	-5.1701	-4.6631	-4.9885	-32.1517	-26.3765	71.8622	100.0000	
  1257	-3.0423	-5.1570	-4.6352	-4.9729	-32.1517	-26.3765	71.8586	100.0000	
  1258	-3.0088	-5.1341	-4.5919	-4.9437	-32.1517	-26.3765	71.8503	100.0000	
  1259	-2.9598	-5.0909	-4.5301	-4.8917	-32.1517	-26.3765	71.8316	100.0000	
  1260	-2.9036	-5.0365	-4.4598	-4.8318	-32.1517	-26.3765	71.8344	100.0000	
  1261	-2.8474	-4.9808	-4.3894	-4.7682	-32.1517	-26.3765	71.8220	100.0000	
  1262	-2.7909	-4.9224	-4.3151	-4.7034	-32.1517	-26.3765	71.8298	100.0000	
  1263	-2.7337	-4.8610	-4.2418	-4.6331	-32.1517	-26.3765	71.8160	100.0000	
  1264	-2.6872	-4.8038	-4.1782	-4.5703	-32.1517	-26.3765	71.8247	100.0000	
  1265	-2.6463	-4.7542	-4.1262	-4.5090	-32.1517	-26.3765	71.7768	100.0000	
  1266	-2.6095	-4.7059	-4.0690	-4.4528	-32.1517	-26.3765	71.7833	100.0000	
  1267	-2.5598	-4.6506	-3.9986	-4.3891	-32.1517	-26.3765	71.7893	100.0000	
  1268	-2.5051	-4.5882	-3.9254	-4.3201	-32.1517	-26.3765	71.7964	100.0000	
  1269	-2.4612	-4.5315	-3.8635	-4.2573	-32.1517	-26.3765	71.8045	100.0000	
  1270	-2.4193	-4.4761	-3.8010	-4.1940	-32.1517	-26.3765	71.8107	100.0000	
  1271	-2.3844	-4.4264	-3.7493	-4.1364	-32.1517	-26.3765	71.8051	100.0000	
  1272	-2.3695	-4.3962	-3.7349	-4.1090	-32.1517	-26.3765	71.8123	100.0000	
  1273	-2.3798	-4.4041	-3.7529	-4.1243	-32.1517	-26.3765	71.8333	100.0000	
  1274	-2.4026	-4.4356	-3.7876	-4.1624	-32.1517	-26.3765	71.8425	100.0000	
  1275	-2.4282	-4.4715	-3.8235	-4.2013	-32.1517	-26.3765	71.8357	100.0000	
  1276	-2.4464	-4.5026	-3.8494	-4.2361	-32.1517	-26.3765	71.8419	100.0000	
  1277	-2.4576	-4.5266	-3.8712	-4.2622	-32.1517	-26.3765	71.8271	100.0000	
  1278	-2.4703	-4.5528	-3.8957	-4.2937	-32.1517	-26.3765	71.8283	100.0000	
  1279	-2.4803	-4.5786	-3.9171	-4.3257	-32.1517	-26.3765	71.8368	100.0000	
  1280	-2.4842	-4.6018	-3.9359	-4.3547	-32.1517	-26.3765	71.8324	100.0000	
  1281	-2.4808	-4.6215	-3.9529	-4.3825	-32.1517	-26.3765	71.8241	100.0000	
  1282	-2.4868	-4.6460	-3.9799	-4.4157	-32.1517	-26.3765	71.8163	100.0000	
  1283	-2.4964	-4.6767	-4.0108	-4.4525	-32.1517	-26.3765	71.7939	100.0000	
  1284	-2.4986	-4.7026	-4.0340	-4.4832	-32.1517	-26.3765	71.7634	100.0000	
  1285	-2.5032	-4.7263	-4.0597	-4.5130	-32.1517	-26.3765	71.7405	100.0000	
  1286	-2.5029	-4.7428	-4.0810	-4.5329	-32.1517	-26.3765	71.6948	100.0000	
  1287	-2.4803	-4.7386	-4.0562	-4.5264	-32.1517	-26.3765	71.6922	100.0000	
  1288	-2.4431	-4.7068	-4.0156	-4.4930	-32.1517	-26.3765	71.6881	100.0000	
  1289	-2.4038	-4.6724	-3.9708	-4.4592	-32.1517	-26.3765	71.7051	100.0000	
  1290	-2.3652	-4.6384	-3.9291	-4.4275	-32.1517	-26.3765	71.7239	100.0000	
  1291	-2.3273	-4.6062	-3.8899	-4.3961	-32.1517	-26.3765	71.7289	100.0000	
  1292	-2.2948	-4.5775	-3.8535	-4.3702	-32.1517	-26.3765	71.7548	100.0000	
  1293	-2.2591	-4.5479	-3.8094	-4.3393	-32.1517	-26.3765	71.7700	100.0000	
  1294	-2.2122	-4.5073	-3.7524	-4.2952	-32.1517	-26.3765	71.7756	100.0000	
  1295	-2.1590	-4.4587	-3.6881	-4.2428	-32.1517	-26.3765	71.7804	100.0000	
  1296	-2.0953	-4.4112	-3.6222	-4.1846	-32.1517	-26.3765	71.7162	100.0000	
  1297	-2.0369	-4.3644	-3.5609	-4.1305	-32.1517	-26.3765	71.6742	100.0000	
  1298	-1.9755	-4.3209	-3.4972	-4.0785	-32.1517	-26.3765	71.6252	100.0000	
  1299	-1.9159	-4.2657	-3.4329	-4.0261	-32.1517	-26.3765	71.6495	100.0000	
  1300	-1.8526	-4.2234	-3.3736	-3.9758	-32.1517	-26.3765	71.5819	100.0000	
  1301	-1.7940	-4.1843	-3.3085	-3.9301	-32.1517	-26.3765	71.5607	100.0000	
  1302	-1.7428	-4.1370	-3.2542	-3.8818	-32.1517	-26.3765	71.5563	100.0000	
  1303	-1.6983	-4.0928	-3.2075	-3.8359	-32.1517	-26.3765	71.5452	100.0000	
  1304	-1.6566	-4.0504	-3.1651	-3.7916	-32.1517	-26.3765	71.5278	100.0000	
  1305	-1.6123	-4.0089	-3.1165	-3.7470	-32.1517	-26.3765	71.5153	100.0000	
  1306	-1.5698	-3.9660	-3.0718	-3.7036	-32.1517	-26.3765	71.5117	100.0000	
  1307	-1.5316	-3.9284	-3.0340	-3.6647	-32.1517	-26.3765	71.4953	100.0000	
  1308	-1.4977	-3.9078	-3.0083	-3.6349	-32.1517	-26.3765	71.4099	100.0000	
  1309	-1.4723	-3.8991	-2.9938	-3.6158	-32.1517	-26.3765	71.3119	100.0000	
  1310	-1.4584	-3.8966	-2.9877	-3.6058	-32.1517	-26.3765	71.2421	100.0000	
  1311	-1.4641	-3.8939	-2.9907	-3.6054	-32.1517	-26.3765	71.2630	100.0000	
  1312	-1.4795	-3.8999	-2.9964	-3.6187	-32.1517	-26.3765	71.3392	100.0000	
  1313	-1.5031	-3.9113	-3.0121	-3.6361	-32.1517	-26.3765	71.4023	100.0000	
  1314	-1.5324	-3.9418	-3.0360	-3.6684	-32.1517	-26.3765	71.4374	100.0000	
  1315	-1.5572	-3.9630	-3.0425	-3.6955	-32.1517	-26.3765	71.5385	100.0000	
  1316	-1.5861	-3.9868	-3.0708	-3.7295	-32.1517	-26.3765	71.6066	100.0000	
  1317	-1.6208	-4.0325	-3.1041	-3.7764	-32.1517	-26.3765	71.6297	100.0000	
  1318	-1.6542	-4.0772	-3.1337	-3.8220	-32.1517	-26.3765	71.6585	100.0000	
  1319	-1.6910	-4.1242	-3.1647	-3.8697	-32.1517	-26.3765	71.6935	100.0000	
  1320	-1.7399	-4.1777	-3.2094	-3.9228	-32.1517	-26.3765	71.7152	100.0000	
  1321	-1.7839	-4.2255	-3.2411	-3.9722	-32.1517	-26.3765	71.7757	100.0000	
  1322	-1.8151	-4.2663	-3.2679	-4.0124	-32.1517	-26.3765	71.7966	100.0000	
  1323	-1.8496	-4.2963	-3.2971	-4.0518	-32.1517	-26.3765	71.8766	100.0000	
  1324	-1.8847	-4.3267	-3.3290	-4.0941	-32.1517	-26.3765	71.9655	100.0000	
  1325	-1.9201	-4.3612	-3.3652	-4.1380	-32.1517	-26.3765	72.0272	100.0000	
  1326	-1.9524	-4.3988	-3.3978	-4.1820	-32.1517	-26.3765	72.0738	100.0000	
  1327	-1.9733	-4.4303	-3.4265	-4.2126	-32.1517	-26.3765	72.0503	100.0000	
  1328	-1.9878	-4.4552	-3.4465	-4.2399	-32.1517	-26.3765	72.0547	100.0000	
  1329	-1.9934	-4.4730	-3.4572	-4.2553	-32.1517	-26.3765	72.0285	100.0000	
  1330	-2.0067	-4.4880	-3.4785	-4.2739	-32.1517	-26.3765	72.0273	100.0000	
  1331	-2.0100	-4.4992	-3.4797	-4.2843	-32.1517	-26.3765	72.0335	100.0000	
  1332	-2.0027	-4.4984	-3.4747	-4.2835	-32.1517	-26.3765	72.0273	100.0000	
  1333	-1.9860	-4.4927	-3.4641	-4.2790	-32.1517	-26.3765	72.0159	100.0000	
  1334	-1.9651	-4.4818	-3.4507	-4.2704	-32.1517	-26.3765	72.0053	100.0000	
  1335	-1.9333	-4.4638	-3.4278	-4.2556	-32.1517	-26.3765	71.9953	100.0000	
  1336	-1.9077	-4.4525	-3.4162	-4.2457	-32.1517	-26.3765	71.9593	100.0000	
  1337	-1.8916	-4.4459	-3.4086	-4.2420	-32.1517	-26.3765	71.9496	100.0000	
  1338	-1.8755	-4.4381	-3.3980	-4.2388	-32.1517	-26.3765	71.9604	100.0000	
  1339	-1.8626	-4.4311	-3.3873	-4.2330	-32.1517	-26.3765	71.9613	100.0000	
  1340	-1.8430	-4.4196	-3.3677	-4.2241	-32.1517	-26.3765	71.9755	100.0000	
  1341	-1.8219	-4.4074	-3.3469	-4.2130	-32.1517	-26.3765	71.9822	100.0000	
  1342	-1.7975	-4.3915	-3.3185	-4.1995	-32.1517	-26.3765	72.0085	100.0000	
  1343	-1.7728	-4.3730	-3.2924	-4.1826	-32.1517	-26.3765	72.0214	100.0000	
  1344	-1.7476	-4.3554	-3.2663	-4.1658	-32.1517	-26.3765	72.0272	100.0000	
  1345	-1.7216	-4.3374	-3.2433	-4.1485	-32.1517	-26.3765	72.0205	100.0000	
  1346	-1.7023	-4.3211	-3.2235	-4.1345	-32.1517	-26.3765	72.0343	100.0000	
  1347	-1.6939	-4.3104	-3.2205	-4.1253	-32.1517	-26.3765	72.0228	100.0000	
  1348	-1.7010	-4.3086	-3.2235	-4.1236	-32.1517	-26.3765	72.0352	100.0000	
  1349	-1.7035	-4.3077	-3.2226	-4.1195	-32.1517	-26.3765	72.0253	100.0000	
  1350	-1.7142	-4.3107	-3.2276	-4.1202	-32.1517	-26.3765	72.0292	100.0000	
  1351	-1.7229	-4.3150	-3.2281	-4.1181	-32.1517	-26.3765	72.0162	100.0000	
  1352	-1.7383	-4.3198	-3.2351	-4.1239	-32.1517	-26.3765	72.0486	100.0000	
  1353	-1.7500	-4.3299	-3.2361	-4.1293	-32.1517	-26.3765	72.0564	100.0000	
  1354	-1.7542	-4.3353	-3.2314	-4.1336	-32.1517	-26.3765	72.0802	100.0000	
  1355	-1.7600	-4.3441	-3.2280	-4.1386	-32.1517	-26.3765	72.0889	100.0000	
  1356	-1.7604	-4.3508	-3.2183	-4.1408	-32.1517	-26.3765	72.0967	100.0000	
  1357	-1.7615	-4.3593	-3.2155	-4.1450	-32.1517	-26.3765	72.0864	100.0000	
  1358	-1.7674	-4.3695	-3.2106	-4.1551	-32.1517	-26.3765	72.1238	100.0000	
  1359	-1.7736	-4.3762	-3.2023	-4.1606	-32.1517	-26.3765	72.1659	100.0000	
  1360	-1.7786	-4.3819	-3.1827	-4.1600	-32.1517	-26.3765	72.2079	100.0000	
  1361	-1.7648	-4.3821	-3.1497	-4.1520	-32.1517	-26.3765	72.2232	100.0000	
  1362	-1.7356	-4.3748	-3.1017	-4.1366	-32.1517	-26.3765	72.2385	100.0000	
  1363	-1.6994	-4.3618	-3.0528	-4.1171	-32.1517	-26.3765	72.2424	100.0000	
  1364	-1.6701	-4.3518	-3.0108	-4.1020	-32.1517	-26.3765	72.2544	100.0000	
  1365	-1.6326	-4.3379	-2.9625	-4.0829	-32.1517	-26.3765	72.2598	100.0000	
  1366	-1.5990	-4.3239	-2.9225	-4.0691	-32.1517	-26.3765	72.2833	100.0000	
  1367	-1.5624	-4.3132	-2.8793	-4.0533	-32.1517	-26.3765	72.2767	100.0000	
  1368	-1.5255	-4.2984	-2.8360	-4.0349	-32.1517	-26.3765	72.2778	100.0000	
  1369	-1.4973	-4.2866	-2.8041	-4.0227	-32.1517	-26.3765	72.2886	100.0000	
  1370	-1.4629	-4.2695	-2.7539	-4.0024	-32.1517	-26.3765	72.3197	100.0000	
  1371	-1.4180	-4.2405	-2.6950	-3.9704	-32.1517	-26.3765	72.3444	100.0000	
  1372	-1.3703	-4.2084	-2.6303	-3.9322	-32.1517	-26.3765	72.3595	100.0000	
  1373	-1.3163	-4.1697	-2.5602	-3.8845	-32.1517	-26.3765	72.3521	100.0000	
  1374	-1.2627	-4.1363	-2.4995	-3.8417	-32.1517	-26.3765	72.3148	100.0000	
  1375	-1.2236	-4.1175	-2.4716	-3.8152	-32.1517	-26.3765	72.2326	100.0000	
  1376	-1.2221	-4.1037	-2.4868	-3.8021	-32.1517	-26.3765	72.1774	100.0000	
  1377	-1.2585	-4.0988	-2.5724	-3.7995	-32.1517	-26.3765	72.0138	100.0000	
  1378	-1.3603	-4.1143	-2.7716	-3.8426	-32.1517	-26.3765	71.8306	100.0000	
  1379	-1.5778	-4.1723	-3.0943	-3.9449	-32.1517	-26.3765	71.7216	100.0000	
  1380	-1.8974	-4.2743	-3.5125	-4.0788	-32.1517	-26.3765	71.5450	100.0000	
  1381	-2.2656	-4.4000	-3.9654	-4.2290	-32.1517	-26.3765	71.3717	100.0000	
  1382	-2.5754	-4.5138	-4.3267	-4.3527	-32.1517	-26.3765	71.2344	100.0000	
  1383	-2.7995	-4.5838	-4.5737	-4.4278	-32.1517	-26.3765	71.1697	100.0000	
  1384	-2.9961	-4.6411	-4.7896	-4.4840	-32.1517	-26.3765	71.0787	100.0000	
  1385	-3.1865	-4.6945	-5.0140	-4.5397	-32.1517	-26.3765	70.9609	100.0000	
  1386	-3.3848	-4.7491	-5.2707	-4.6030	-32.1517	-26.3765	70.7958	100.0000	
  1387	-3.6138	-4.8132	-5.5926	-4.6916	-32.1517	-26.3765	70.6008	100.0000	
  1388	-3.8729	-4.8981	-5.9547	-4.8085	-32.1517	-26.3765	70.4227	100.0000	
  1389	-4.1266	-4.9820	-6.2584	-4.9106	-32.1517	-26.3765	70.3462	100.0000	
  1390	-4.3693	-5.0563	-6.5301	-4.9992	-32.1517	-26.3765	70.3142	100.0000	
  1391	-4.5990	-5.1428	-6.7774	-5.0915	-32.1517	-26.3765	70.2743	100.0000	
  1392	-4.7904	-5.2252	-6.9609	-5.1811	-32.1517	-26.3765	70.3383	100.0000	
  1393	-4.9235	-5.2957	-7.0704	-5.2409	-32.1517	-26.3765	70.3547	100.0000	
  1394	-4.9638	-5.3359	-7.1331	-5.2766	-32.1517	-26.3765	70.2401	100.0000	
  1395	-4.9333	-5.3510	-7.1365	-5.3042	-32.1517	-26.3765	70.2047	100.0000	
  1396	-4.8598	-5.3500	-7.1086	-5.3199	-32.1517	-26.3765	70.1573	100.0000	
  1397	-4.8315	-5.3574	-7.1591	-5.3562	-32.1517	-26.3765	70.0557	100.0000	
  1398	-4.8818	-5.4015	-7.3208	-5.4389	-32.1517	-26.3765	69.8999	100.0000	
  1399	-4.9499	-5.4571	-7.5016	-5.5352	-32.1517	-26.3765	69.7533	100.0000	
  1400	-5.0267	-5.5171	-7.6876	-5.6372	-32.1517	-26.3765	69.6290	100.0000	
  1401	-5.1047	-5.5868	-7.8531	-5.7441	-32.1517	-26.3765	69.5524	100.0000	
  1402	-5.1574	-5.6479	-7.9585	-5.8291	-32.1517	-26.3765	69.5204	100.0000	
  1403	-5.1849	-5.6927	-8.0348	-5.8881	-32.1517	-26.3765	69.4345	100.0000	
  1404	-5.2192	-5.7317	-8.1620	-5.9582	-32.1517	-26.3765	69.2970	100.0000	
  1405	-5.2434	-5.7640	-8.2676	-6.0252	-32.1517	-26.3765	69.2324	100.0000	
  1406	-5.2499	-5.7747	-8.3291	-6.0709	-32.1517	-26.3765	69.2689	100.0000	
  1407	-5.2635	-5.7835	-8.3796	-6.0975	-32.1517	-26.3765	69.2514	100.0000	
  1408	-5.2533	-5.7769	-8.3716	-6.0960	-32.1517	-26.3765	69.2764	100.0000	
  1409	-5.2131	-5.7509	-8.2741	-6.0535	-32.1517	-26.3765	69.3863	100.0000	
  1410	-5.1339	-5.7062	-8.1249	-5.9836	-32.1517	-26.3765	69.4875	100.0000	
  1411	-5.0367	-5.6447	-7.9594	-5.8972	-32.1517	-26.3765	69.5809	100.0000	
  1412	-4.9398	-5.5783	-7.7850	-5.8063	-32.1517	-26.3765	69.7102	100.0000	
  1413	-4.8425	-5.5141	-7.6068	-5.7129	-32.1517	-26.3765	69.8210	100.0000	
  1414	-4.7465	-5.4508	-7.4274	-5.6199	-32.1517	-26.3765	69.9383	100.0000	
  1415	-4.6505	-5.3888	-7.2487	-5.5274	-32.1517	-26.3765	70.0470	100.0000	
  1416	-4.5545	-5.3255	-7.0662	-5.4336	-32.1517	-26.3765	70.1703	100.0000	
  1417	-4.4560	-5.2644	-6.8807	-5.3416	-32.1517	-26.3765	70.2933	100.0000	
  1418	-4.3584	-5.2065	-6.6918	-5.2533	-32.1517	-26.3765	70.4405	100.0000	
  1419	-4.2604	-5.1548	-6.5043	-5.1683	-32.1517	-26.3765	70.5618	100.0000	
  1420	-4.1671	-5.1049	-6.3429	-5.0894	-32.1517	-26.3765	70.6241	100.0000	
  1421	-4.0808	-5.0620	-6.2162	-5.0184	-32.1517	-26.3765	70.5858	100.0000	
  1422	-3.9939	-5.0201	-6.0953	-4.9621	-32.1517	-26.3765	70.6177	100.0000	
  1423	-3.9191	-4.9847	-5.9904	-4.9159	-32.1517	-26.3765	70.6603	100.0000	
  1424	-3.8452	-4.9524	-5.8910	-4.8723	-32.1517	-26.3765	70.6816	100.0000	
  1425	-3.7792	-4.9200	-5.8079	-4.8330	-32.1517	-26.3765	70.7001	100.0000	
  1426	-3.7227	-4.8952	-5.7332	-4.8029	-32.1517	-26.3765	70.7342	100.0000	
  1427	-3.6744	-4.8756	-5.6730	-4.7785	-32.1517	-26.3765	70.7484	100.0000	
  1428	-3.6321	-4.8573	-5.6203	-4.7577	-32.1517	-26.3765	70.7717	100.0000	
  1429	-3.5883	-4.8367	-5.5675	-4.7344	-32.1517	-26.3765	70.7878	100.0000	
  1430	-3.5478	-4.8157	-5.5172	-4.7128	-32.1517	-26.3765	70.8191	100.0000	
  1431	-3.5115	-4.7987	-5.4714	-4.6941	-32.1517	-26.3765	70.8429	100.0000	
  1432	-3.4791	-4.7829	-5.4300	-4.6770	-32.1517	-26.3765	70.8671	100.0000	
  1433	-3.4475	-4.7690	-5.3886	-4.6611	-32.1517	-26.3765	70.8909	100.0000	
  1434	-3.4132	-4.7519	-5.3454	-4.6440	-32.1517	-26.3765	70.9228	100.0000	
  1435	-3.3794	-4.7353	-5.3051	-4.6265	-32.1517	-26.3765	70.9406	100.0000	
  1436	-3.3445	-4.7205	-5.2644	-4.6110	-32.1517	-26.3765	70.9588	100.0000	
  1437	-3.3090	-4.7066	-5.2244	-4.5972	-32.1517	-26.3765	70.9779	100.0000	
  1438	-3.2755	-4.6940	-5.1858	-4.5855	-32.1517	-26.3765	71.0042	100.0000	
  1439	-3.2455	-4.6836	-5.1520	-4.5746	-32.1517	-26.3765	71.0163	100.0000	
  1440	-3.2174	-4.6745	-5.1178	-4.5645	-32.1517	-26.3765	71.0345	100.0000	
  1441	-3.1887	-4.6650	-5.0822	-4.5536	-32.1517	-26.3765	71.0522	100.0000	
  1442	-3.1593	-4.6550	-5.0461	-4.5436	-32.1517	-26.3765	71.0777	100.0000	
  1443	-3.1320	-4.6463	-5.0125	-4.5351	-32.1517	-26.3765	71.1036	100.0000	
  1444	-3.1086	-4.6390	-4.9827	-4.5292	-32.1517	-26.3765	71.1372	100.0000	
  1445	-3.0835	-4.6344	-4.9554	-4.5224	-32.1517	-26.3765	71.1348	100.0000	
  1446	-3.0548	-4.6262	-4.9242	-4.5131	-32.1517	-26.3765	71.1397	100.0000	
  1447	-3.0201	-4.6140	-4.8861	-4.5005	-32.1517	-26.3765	71.1515	100.0000	
  1448	-2.9805	-4.5975	-4.8454	-4.4851	-32.1517	-26.3765	71.1646	100.0000	
  1449	-2.9415	-4.5814	-4.8101	-4.4683	-32.1517	-26.3765	71.1499	100.0000	
  1450	-2.9078	-4.5647	-4.7811	-4.4532	-32.1517	-26.3765	71.1437	100.0000	
  1451	-2.8816	-4.5530	-4.7572	-4.4426	-32.1517	-26.3765	71.1441	100.0000	
  1452	-2.8560	-4.5403	-4.7332	-4.4307	-32.1517	-26.3765	71.1441	100.0000	
  1453	-2.8257	-4.5258	-4.7079	-4.4167	-32.1517	-26.3765	71.1306	100.0000	
  1454	-2.7945	-4.5083	-4.6801	-4.4024	-32.1517	-26.3765	71.1392	100.0000	
  1455	-2.7661	-4.4925	-4.6542	-4.3893	-32.1517	-26.3765	71.1474	100.0000	
  1456	-2.7391	-4.4790	-4.6308	-4.3766	-32.1517	-26.3765	71.1408	100.0000	
  1457	-2.7147	-4.4645	-4.6104	-4.3635	-32.1517	-26.3765	71.1347	100.0000	
  1458	-2.6897	-4.4509	-4.5895	-4.3511	-32.1517	-26.3765	71.1286	100.0000	
  1459	-2.6654	-4.4378	-4.5686	-4.3388	-32.1517	-26.3765	71.1221	100.0000	
  1460	-2.6430	-4.4246	-4.5471	-4.3273	-32.1517	-26.3765	71.1294	100.0000	
  1461	-2.6220	-4.4136	-4.5281	-4.3175	-32.1517	-26.3765	71.1298	100.0000	
  1462	-2.6065	-4.4062	-4.5143	-4.3110	-32.1517	-26.3765	71.1303	100.0000	
  1463	-2.5938	-4.4005	-4.5017	-4.3053	-32.1517	-26.3765	71.1298	100.0000	
  1464	-2.5817	-4.3953	-4.4867	-4.3004	-32.1517	-26.3765	71.1429	100.0000	
  1465	-2.5670	-4.3910	-4.4650	-4.2960	-32.1517	-26.3765	71.1687	100.0000	
  1466	-2.5462	-4.3827	-4.4400	-4.2871	-32.1517	-26.3765	71.1805	100.0000	
  1467	-2.5268	-4.3753	-4.4157	-4.2798	-32.1517	-26.3765	71.1997	100.0000	
  1468	-2.5115	-4.3706	-4.3933	-4.2751	-32.1517	-26.3765	71.2254	100.0000	
  1469	-2.4989	-4.3689	-4.3741	-4.2711	-32.1517	-26.3765	71.2360	100.0000	
  1470	-2.4844	-4.3660	-4.3542	-4.2667	-32.1517	-26.3765	71.2474	100.0000	
  1471	-2.4711	-4.3625	-4.3350	-4.2627	-32.1517	-26.3765	71.2661	100.0000	
  1472	-2.4565	-4.3596	-4.3146	-4.2592	-32.1517	-26.3765	71.2848	100.0000	
  1473	-2.4452	-4.3574	-4.2966	-4.2560	-32.1517	-26.3765	71.3031	100.0000	
  1474	-2.4346	-4.3558	-4.2817	-4.2524	-32.1517	-26.3765	71.3075	100.0000	
  1475	-2.4254	-4.3536	-4.2681	-4.2496	-32.1517	-26.3765	71.3197	100.0000	
  1476	-2.4193	-4.3510	-4.2575	-4.2464	-32.1517	-26.3765	71.3318	100.0000	
  1477	-2.4127	-4.3493	-4.2469	-4.2432	-32.1517	-26.3765	71.3367	100.0000	
  1478	-2.4046	-4.3454	-4.2374	-4.2383	-32.1517	-26.3765	71.3354	100.0000	
  1479	-2.4018	-4.3423	-4.2330	-4.2366	-32.1517	-26.3765	71.3497	100.0000	
  1480	-2.4077	-4.3435	-4.2523	-4.2419	-32.1517	-26.3765	71.3276	100.0000	
  1481	-2.4251	-4.3496	-4.2942	-4.2556	-32.1517	-26.3765	71.2891	100.0000	
  1482	-2.4518	-4.3578	-4.3492	-4.2743	-32.1517	-26.3765	71.2537	100.0000	
  1483	-2.4866	-4.3713	-4.4068	-4.2958	-32.1517	-26.3765	71.2231	100.0000	
  1484	-2.5162	-4.3839	-4.4426	-4.3117	-32.1517	-26.3765	71.2207	100.0000	
  1485	-2.5374	-4.3886	-4.4605	-4.3136	-32.1517	-26.3765	71.2117	100.0000	
  1486	-2.5571	-4.3898	-4.4682	-4.3090	-32.1517	-26.3765	71.2123	100.0000	
  1487	-2.5746	-4.3856	-4.4736	-4.2955	-32.1517	-26.3765	71.1898	100.0000	
  1488	-2.5906	-4.3805	-4.4765	-4.2830	-32.1517	-26.3765	71.1818	100.0000	
  1489	-2.6042	-4.3776	-4.4765	-4.2721	-32.1517	-26.3765	71.1735	100.0000	
  1490	-2.6138	-4.3735	-4.4739	-4.2596	-32.1517	-26.3765	71.1583	100.0000	
  1491	-2.6162	-4.3686	-4.4555	-4.2477	-32.1517	-26.3765	71.1825	100.0000	
  1492	-2.6154	-4.3552	-4.4408	-4.2273	-32.1517	-26.3765	71.1809	100.0000	
  1493	-2.6325	-4.3456	-4.4490	-4.2097	-32.1517	-26.3765	71.1530	100.0000	
  1494	-2.6750	-4.3447	-4.4895	-4.2009	-32.1517	-26.3765	71.0997	100.0000	
  1495	-2.7524	-4.3573	-4.5670	-4.2051	-32.1517	-26.3765	71.0326	100.0000	
  1496	-2.8712	-4.3851	-4.6963	-4.2271	-32.1517	-26.3765	70.9394	100.0000	
  1497	-3.0454	-4.4409	-4.8884	-4.2861	-32.1517	-26.3765	70.8757	100.0000	
  1498	-3.2427	-4.5116	-5.1032	-4.3549	-32.1517	-26.3765	70.7808	100.0000	
  1499	-3.4038	-4.5666	-5.2523	-4.4005	-32.1517	-26.3765	70.7488	100.0000	
  1500	-3.5459	-4.6120	-5.3861	-4.4376	-32.1517	-26.3765	70.7112	100.0000	
  1501	-3.6756	-4.6571	-5.5140	-4.4768	-32.1517	-26.3765	70.6698	100.0000	
  1502	-3.8027	-4.7045	-5.6367	-4.5223	-32.1517	-26.3765	70.6646	100.0000	
  1503	-3.9252	-4.7501	-5.7543	-4.5632	-32.1517	-26.3765	70.6438	100.0000	
  1504	-4.0474	-4.7903	-5.8727	-4.5975	-32.1517	-26.3765	70.6086	100.0000	
  1505	-4.1822	-4.8336	-6.0042	-4.6354	-32.1517	-26.3765	70.5740	100.0000	
  1506	-4.3365	-4.8842	-6.1635	-4.6780	-32.1517	-26.3765	70.4931	100.0000	
  1507	-4.5066	-4.9490	-6.3322	-4.7351	-32.1517	-26.3765	70.4385	100.0000	
  1508	-4.6725	-5.0200	-6.4897	-4.7982	-32.1517	-26.3765	70.4096	100.0000	
  1509	-4.8145	-5.0860	-6.6135	-4.8529	-32.1517	-26.3765	70.3968	100.0000	
  1510	-4.9076	-5.1333	-6.6688	-4.8862	-32.1517	-26.3765	70.4398	100.0000	
  1511	-4.9317	-5.1540	-6.6309	-4.8883	-32.1517	-26.3765	70.5457	100.0000	
  1512	-4.8777	-5.1371	-6.5052	-4.8445	-32.1517	-26.3765	70.6343	100.0000	
  1513	-4.7850	-5.0979	-6.3468	-4.7856	-32.1517	-26.3765	70.7491	100.0000	
  1514	-4.7285	-5.0717	-6.2689	-4.7534	-32.1517	-26.3765	70.7867	100.0000	
  1515	-4.6958	-5.0609	-6.2205	-4.7413	-32.1517	-26.3765	70.8361	100.0000	
  1516	-4.6723	-5.0522	-6.1844	-4.7325	-32.1517	-26.3765	70.8801	100.0000	
  1517	-4.6530	-5.0462	-6.1551	-4.7245	-32.1517	-26.3765	70.9031	100.0000	
  1518	-4.6343	-5.0405	-6.1279	-4.7189	-32.1517	-26.3765	70.9344	100.0000	
  1519	-4.6151	-5.0372	-6.0978	-4.7176	-32.1517	-26.3765	70.9870	100.0000	
  1520	-4.5840	-5.0312	-6.0540	-4.7134	-32.1517	-26.3765	71.0456	100.0000	
  1521	-4.5374	-5.0179	-5.9939	-4.7024	-32.1517	-26.3765	71.1106	100.0000	
  1522	-4.4759	-4.9962	-5.9193	-4.6831	-32.1517	-26.3765	71.1752	100.0000	
  1523	-4.4021	-4.9653	-5.8319	-4.6556	-32.1517	-26.3765	71.2466	100.0000	
  1524	-4.3213	-4.9286	-5.7382	-4.6240	-32.1517	-26.3765	71.3254	100.0000	
  1525	-4.2472	-4.8923	-5.6549	-4.5919	-32.1517	-26.3765	71.3840	100.0000	
  1526	-4.1931	-4.8625	-5.5926	-4.5649	-32.1517	-26.3765	71.4289	100.0000	
  1527	-4.1577	-4.8397	-5.5477	-4.5408	-32.1517	-26.3765	71.4512	100.0000	
  1528	-4.1296	-4.8190	-5.5079	-4.5199	-32.1517	-26.3765	71.4871	100.0000	
  1529	-4.0959	-4.8010	-5.4671	-4.5019	-32.1517	-26.3765	71.5110	100.0000	
  1530	-4.0622	-4.7857	-5.4289	-4.4881	-32.1517	-26.3765	71.5365	100.0000	
  1531	-4.0281	-4.7727	-5.3889	-4.4756	-32.1517	-26.3765	71.5611	100.0000	
  1532	-3.9913	-4.7592	-5.3472	-4.4631	-32.1517	-26.3765	71.5862	100.0000	
  1533	-3.9557	-4.7453	-5.3072	-4.4493	-32.1517	-26.3765	71.6041	100.0000	
  1534	-3.9215	-4.7309	-5.2684	-4.4351	-32.1517	-26.3765	71.6219	100.0000	
  1535	-3.8892	-4.7165	-5.2302	-4.4213	-32.1517	-26.3765	71.6465	100.0000	
  1536	-3.8577	-4.7026	-5.1927	-4.4091	-32.1517	-26.3765	71.6784	100.0000	
  1537	-3.8242	-4.6900	-5.1546	-4.3966	-32.1517	-26.3765	71.6963	100.0000	
  1538	-3.7894	-4.6778	-5.1147	-4.3853	-32.1517	-26.3765	71.7212	100.0000	
  1539	-3.7555	-4.6688	-5.0788	-4.3777	-32.1517	-26.3765	71.7407	100.0000	
  1540	-3.7280	-4.6691	-5.0528	-4.3838	-32.1517	-26.3765	71.7780	100.0000	
  1541	-3.7016	-4.6779	-5.0291	-4.3975	-32.1517	-26.3765	71.8086	100.0000	
  1542	-3.6688	-4.6876	-4.9986	-4.4116	-32.1517	-26.3765	71.8387	100.0000	
  1543	-3.6339	-4.6960	-4.9687	-4.4236	-32.1517	-26.3765	71.8556	100.0000	
  1544	-3.6069	-4.7043	-4.9430	-4.4347	-32.1517	-26.3765	71.8777	100.0000	
  1545	-3.5791	-4.7109	-4.9152	-4.4421	-32.1517	-26.3765	71.8915	100.0000	
  1546	-3.5531	-4.7147	-4.8887	-4.4491	-32.1517	-26.3765	71.9199	100.0000	
  1547	-3.5284	-4.7168	-4.8632	-4.4531	-32.1517	-26.3765	71.9407	100.0000	
  1548	-3.5036	-4.7188	-4.8371	-4.4580	-32.1517	-26.3765	71.9686	100.0000	
  1549	-3.4769	-4.7222	-4.8093	-4.4654	-32.1517	-26.3765	72.0040	100.0000	
  1550	-3.4490	-4.7261	-4.7833	-4.4715	-32.1517	-26.3765	72.0191	100.0000	
  1551	-3.4239	-4.7331	-4.7600	-4.4818	-32.1517	-26.3765	72.0417	100.0000	
  1552	-3.4047	-4.7413	-4.7456	-4.4966	-32.1517	-26.3765	72.0742	100.0000	
  1553	-3.3885	-4.7567	-4.7352	-4.5188	-32.1517	-26.3765	72.1076	100.0000	
  1554	-3.3684	-4.7707	-4.7172	-4.5362	-32.1517	-26.3765	72.1307	100.0000	
  1555	-3.3350	-4.7711	-4.6786	-4.5353	-32.1517	-26.3765	72.1478	100.0000	
  1556	-3.2889	-4.7555	-4.6261	-4.5183	-32.1517	-26.3765	72.1635	100.0000	
  1557	-3.2393	-4.7363	-4.5717	-4.4988	-32.1517	-26.3765	72.1802	100.0000	
  1558	-3.1916	-4.7145	-4.5226	-4.4755	-32.1517	-26.3765	72.1770	100.0000	
  1559	-3.1486	-4.6958	-4.4762	-4.4576	-32.1517	-26.3765	72.1951	100.0000	
  1560	-3.1062	-4.6761	-4.4296	-4.4360	-32.1517	-26.3765	72.1976	100.0000	
  1561	-3.0577	-4.6538	-4.3730	-4.4115	-32.1517	-26.3765	72.2117	100.0000	
  1562	-3.0046	-4.6298	-4.3134	-4.3862	-32.1517	-26.3765	72.2269	100.0000	
  1563	-2.9519	-4.6022	-4.2511	-4.3581	-32.1517	-26.3765	72.2545	100.0000	
  1564	-2.8863	-4.5779	-4.1844	-4.3283	-32.1517	-26.3765	72.2283	100.0000	
  1565	-2.8307	-4.5446	-4.1198	-4.2926	-32.1517	-26.3765	72.2416	100.0000	
  1566	-2.7749	-4.5085	-4.0544	-4.2515	-32.1517	-26.3765	72.2393	100.0000	
  1567	-2.7151	-4.4712	-3.9788	-4.2063	-32.1517	-26.3765	72.2400	100.0000	
  1568	-2.6490	-4.4272	-3.8986	-4.1545	-32.1517	-26.3765	72.2339	100.0000	
  1569	-2.5801	-4.3788	-3.8178	-4.1023	-32.1517	-26.3765	72.2443	100.0000	
  1570	-2.5166	-4.3339	-3.7471	-4.0554	-32.1517	-26.3765	72.2507	100.0000	
  1571	-2.4613	-4.2956	-3.6847	-4.0151	-32.1517	-26.3765	72.2578	100.0000	
  1572	-2.4087	-4.2578	-3.6236	-3.9756	-32.1517	-26.3765	72.2712	100.0000	
  1573	-2.3570	-4.2244	-3.5617	-3.9429	-32.1517	-26.3765	72.3059	100.0000	
  1574	-2.3019	-4.1901	-3.5039	-3.9080	-32.1517	-26.3765	72.3088	100.0000	
  1575	-2.2511	-4.1598	-3.4551	-3.8800	-32.1517	-26.3765	72.3154	100.0000	
  1576	-2.2102	-4.1321	-3.4248	-3.8545	-32.1517	-26.3765	72.2914	100.0000	
  1577	-2.1795	-4.1110	-3.4041	-3.8350	-32.1517	-26.3765	72.2674	100.0000	
  1578	-2.1517	-4.0956	-3.3898	-3.8210	-32.1517	-26.3765	72.2313	100.0000	
  1579	-2.1355	-4.0748	-3.3821	-3.8052	-32.1517	-26.3765	72.2291	100.0000	
